<Actel_Data_File>
    <format name="NVM File" version="01.00.00"/>
    <header>
        <die>
            M2S010
        </die>
        <family>
            SmartFusion2
        </family>
        <module>
            
        </module>
        <package>
            144 TQ
        </package>
        <version>
            12.600.0.14
        </version>
    </header>
    <nvm>
        <region name="FSW_Program" address="0x000000" retrieveAddressFromFile="true" size="22352" format="HEX" type="Data Storage" wordSize="32" numberWords="5588" memFile="C:/Users/Files/MBSAT/working/ManitobaSat-Flight-Software/mbsat-fsw-softconsole/Production/mbsat-fsw-softconsole.hex" memType="INTELHEX" memFileTimeStamp="1588719975" clientType="public" program="true">
            00000120910100007f030000810300008303000085030000870300000000
            0000000000000000000000000000813100008b0300000000000031330000
            793300009103000093030000c5220000e9220000990300009b0300009d03
            00009f030000a1030000a3030000fd11000021120000a9030000ab030000
            ad030000af030000ad050000b3030000b503000059180000b9030000bb03
            0000bd030000bf030000c1030000c3030000c5030000fd250000f5260000
            cb030000cd030000cf030000d1030000d3030000d5030000d7030000d903
            0000db030000dd030000df030000e1030000e3030000e5030000e7030000
            e9030000eb030000ed030000ef030000f1030000f3030000f5030000f703
            0000f9030000fb030000fd030000ff030000010400000304000005040000
            07040000090400000b0400000d0400000f04000011040000130400001504
            000017040000190400001b0400001d0400001f0400002104000023040000
            2504000027040000290400002b0400002d0400002f040000310400003304
            000000000000000000004ff0000bdff8be020068dff8b612096801f00301
            00f01c00142801d14bf0020b002901d04bf0010bbbf1000f05d0a748a749
            dff8722200f09ff8a64880470bf0020abaf1000f0cd0dff86e02dff86e12
            02680b680fb44ff000024ff0ff0302600b609d484ff000024ff001030228
            08d1dff83a120a60dff83e120a60dff832120b60012808d1dff82a120a60
            dff826120a60dff81a120b609048002809d190489049914a00f030f89048
            9149914a00f02bf891489149924a00f026f891489249dff8e22100f058f8
            bbf1000f10d08f488f49dff8d62100f04ff80bf0020abaf1000f05d00fbc
            02600b6000bfaff30080dff820020ff2030e00474ff000004ff00001dff8
            14f2fee72de9f841884225d0b2eb010200d5fee740ea010313f0030302d0
            00f01df819e04ff0000390461211f7d09a421cbff0c8f0c103f10103f8d1
            08f00f08b8f1000f08d004780c7000f1010001f10101b8f10108f6d1bde8
            f88108b54ff0000303780b7000f1010001f10101013af7d108bd884237d0
            00f00306002e14d04ff00405a5eb06044ff0080707fb06f8914669fa08f9
            002c07d080f8009069fa07f900f10100013cf5e74ff000060f46091a8846
            0911914614461546b14206d018bfa0e8340206f10106b142f8d108f00f08
            b8f1000f07d002704fea322200f10100b8f10108f4e77047fee7fee7fee7
            fee7fee7fee7fee7fee7fee7fee7fee7fee7fee7fee7fee7fee7fee7fee7
            fee7fee7fee7fee7fee7fee7fee7fee7fee7fee7fee7fee7fee7fee7fee7
            fee7fee7fee7fee7fee7fee7fee7fee7fee7fee7fee7fee7fee7fee7fee7
            fee7fee7fee7fee7fee7fee7fee7fee7fee7fee7fee7fee7fee7fee7fee7
            fee7fee7fee7fee7fee7fee7fee7fee7fee7fee7fee7fee7fee7fee7fee7
            fee7fee7fee7fee7fee7fee7fee7fee7fee7fee7fee7fee7fee770470000
            0000a2a2a2a2008003400880034010800340308003403480034038800340
            18080240000000f0002000000120ed2a0000000000000000000000000000
            0000000090010000b0040000b00400001057000010570000000000204000
            00204000002030a2002030a2002000f000202d5500008d0c000000000000
            0348044b834202d0034b03b1184770474000002040000020000000000548
            0649091a891001ebd171491002d0034b03b1184770474000002040000020
            0000000010b5064c237843b9fff7daff044b13b10448aff3008001232370
            10bd4000002000000000e856000008b5054b1bb105490548aff30080bde8
            0840fff7cfbf00bf0000000044000020e856000080b400af034b044ada60
            00bfbd4680bc704700bf0050004042de15ac80b400af034bd3f89c311846
            bd4680bc704700bf0080034080b400af034b0122c3f89c2100bfbd4680bc
            70470080034080b582b000af7860fff7e2ff0346002b01d0fff7e9fffff7
            cdff4ff47a5003f01ffef8e7684620f007018d4681b585b000af264802f0
            90f903467b607b6803f48053002b3bd02ee0214802f05df90246204b1a60
            1e4bdb68c3f30343dbb21a461c4b1a710023fb600fe0194afb6813440433
            1b785bb2d9b2164afb68134408330a461a70fb680133fb60124b1b791a46
            fb689342e9db104b1868002300220d4903f0bcf9b8600a49084802f061f9
            0346012bc9d04ff48051044802f03ff900bf1437bd46bde8814085467047
            f89f00205c00002070000020f49f002080b584b000af0123fb600023bb60
            13e0012003f083f801461f4abb6842f823101d4abb6852f82330002b02d1
            0023fb6005e0bb680133bb60bb68012be8ddfb68002b24d000237b601ee0
            7a681346db001344db00114a9818114a7b6852f82310104a7b6832f81330
            1a4602f076f97a681346db001344db00084a1344184602f0cdf97b680133
            7b607b68012bddddfb6818461037bd4680bd94a0002004a0002000000020
            0800002080b582b000af0346fb71fb790521184602f06af8fb7901211846
            02f081f800bf0837bd4680bd000080b483b000af03463960fb7197f90730
            002b0bda3b68dab20c49fb7903f00f03043b1201d2b20b441a7609e03b68
            dab2074997f907301201d2b20b4483f8002300bf0c37bd4680bc704700bf
            00ed00e000e100e080b582b000af7860032279680f4800f0bffb012002f0
            f0ff02460d4b1a6000220421052002f072ff02460a4b1a600a230a211846
            fff7baff00220749034800f0c5fc00bf0837bd4680bd00bfe8a00020a4a0
            00209ca000209d08000080b588b000af78607b68bb61254b7b61254b3b61
            4ff0ff31012004f099fa3b691b68002b0ed002f03bfd3b691b6801331a46
            79691d4804f0c1fe3b6900221a6002f05cfd194804f0cefef8600023fb61
            0ee0164afb6913441b78762b05d113221349144800f0acf806e0fb690133
            fb61fb69fa689a42ecd80c4804f0b4fe03461a460a490b4800f09bf8bb69
            094a9342c0d1064804f0a7fe03461946034800f049f8b7e7800000208001
            002000010020dc550000e8a0002080b588b000af78600023fb60174b1b68
            fb61174bbb61174b7b617b691b68ba69134404221946786800f0e8fb3861
            3b69002b16d07b691a683b691a447b691a6007f10c031946f86904f06efa
            fb68002b07d0094b4ff080521a60bff34f8fbff36f8f00bf2037bd4680bd
            00bfa0a00020800000208001002004ed00e080b582b000af786039601b4b
            1b781a461a4b13443a687968184604f01ffe3b68dab2154b1b781344dab2
            134b1a70124b1b78013b114ad35c0a2b19d1104b186800234ff0ff320021
            03f0b4f80346012b0bd110220b490c4800f018f8084b1868002300220021
            02f017ff034b00221a7000bf0837bd4680bd8401002088010020a4a00020
            f0550000e8a0002080b586b000aff860b9607a6002237b617b68002b0ed0
            7a68b968f86800f0e2fa02e0786903f00efcf86800f029fb0346002bf6d0
            00bf1837bd4680bd80b500af0820fff791fe00bf80bd000080b500affff7
            f4ff0349012001f0bafc01f0fefc00bf80bd80f0fa0280b582b000af7860
            7b689b781846fff777fe00bf0837bd4680bd000080b582b000af00237b60
            0be07a6813465b001344074a13441846fff7e3ff7b6801337b607b68002b
            f0dd00bf0837bd4680bd00bf0c00002080b582b000af0023fb710d20fff7
            4efe00bf18460837bd4680bd000080b582b000af00237b600fe00b4a7b68
            13441b780521184601f0aefe7b680121184600f00df87b6801337b607b68
            072becdd00bf0837bd4680bd00bf0456000080b582b000af786039607b68
            072b2dd802f0dafb174a7b6813441b783a68d2b21146184601f0a4fe3b68
            002b0fd101227b6802fa03f35bb2db435ab20e4b1b785bb213405bb2dab2
            0b4b1a700ce001227b6802fa03f35ab2074b1b785bb213435bb2dab2044b
            1a7002f0dcfb00bf0837bd4680bd045600000802002080b584b000af7860
            5523fb6002f09efb00210020fff7b6ff00210120fff7b2ff02f0c2fb4ff4
            fa6003f042fb294b1b78072b03d0274b1b78002b28d1264b93f90030dbb2
            5b42dbb25ab2234b1a7002f07dfb204b1b7800211846fff793ff1d4b1b78
            1a461c4b93f90030134401211846fff788ff02f098fb164b1a78164b93f9
            0030dbb21344dab2124b1a701ee002f05dfb104b1b781a460f4b93f90030
            d31a01211846fff76eff0a4b1b7800211846fff768ff02f078fb064b1a78
            064b93f90030dbb21344dab2024b1a70f86803f0effaabe70f0000201000
            002080b483b000af0346fb71fb7903f01f02074997f907305b09012000fa
            02f2603341f8232000bf0c37bd4680bc704700bf00e100e080b582b000af
            0d4b5b690c4a23f0030353610a4b0322da610020fff7d7ff074b1b687b60
            054b9b687a689a4202d2034b034ada6000bf0837bd4680bd0050004042de
            15ac80b584b002af00f03bf8002301930123009300234ff47a7211491248
            03f066f97860114b019302230093104b4ff47a720f49104803f05af97860
            0023019301230093002350220c490c4803f04ff9786003f0b8fa00231846
            0837bd4680bd00bf0c560000390b0000a0a00020e8a0002018560000e507
            0000285600008905000080b500affff7b4fe4ff4e130fff736fdfff794ff
            fff7a0fcfff764fefff77efefff798fe00bf80bd80b483b000af4ff0a003
            83f31188bff36f8fbff34f8f7b60fee780b400af00bfbd4680bc704780b4
            85b000af786039604ff0a00383f31188bff36f8fbff34f8ffb60fee70160
            7047006870470eb503fa01f303ea020301686fea020201ea020141ea0301
            01600ebd006800ea020020fa01f0704701807047008870470eb503fa01f3
            03ea020301886fea020201ea020141ea030101800ebd008800ea020020fa
            01f0704701707047007870470eb503fa01f303ea020301786fea020201ea
            020141ea030101700ebd007800ea020020fa01f0704780b483b000af0346
            fb71fb7903f01f02064997f907305b09012000fa02f241f8232000bf0c37
            bd4680bc704700e100e080b483b000af0346fb71fb7903f01f02074997f9
            07305b09012000fa02f2603341f8232000bf0c37bd4680bc704700bf00e1
            00e080b483b000af78600b46fb707b6803f070427b685b0123f07e4323f0
            1f031343fa789200134403f100731a460123136000bf0c37bd4680bc7047
            80b483b000af78600b46fb707b6803f070427b685b0123f07e4323f01f03
            1343fa789200134403f100731a460023136000bf0c37bd4680bc704780b4
            83b000af78600b46fb707b6803f070427b685b0123f07e4323f01f031343
            fa789200134403f100731b68dbb218460c37bd4680bc704780b584b000af
            f860b9601346fb71fb68144a934204d0fb68134a934200d000befb791a46
            b968f86800f026fafb681b68303303211846fff7aafffb681b6834330221
            1846fff7a3fffb681b68383300211846fff79cfffb68044a5a6200bf1037
            bd4680bde8a00020a8a000207117000080b584b000aff860b9607a60fb68
            204a934204d0fb681f4a934200d000bebb68002b00d100be7b68002b00d1
            00be7b68002b29d0bb68002b26d0fb68144a934203d0fb68134a93421ed1
            fb68ba681a61fb687a685a61fb6800229a61fb6893f904301846fff724ff
            fb680b4a5a62fb681b68043301211846fff734fffb6893f904301846fff7
            fcfe00bf1037bd4680bde8a00020a8a000207117000080b485b000af7860
            0023fb730023bb737b68164a934204d07b68154a934200d000be7b68114a
            934203d07b68104a934215d17b681b681b7dbb737b685a7bbb7b1343dab2
            7b685a737b685b69002b06d1bb7b03f04003002b01d00123fb7397f90f30
            18461437bd4680bc7047e8a00020a8a0002080b487b000aff860b9607a60
            00237b610023fb74fb68274a934204d0fb68264a934200d000bebb68002b
            00d100be7b68002b00d100befb681e4a934203d0fb681d4a934230d1bb68
            002b2dd07b68002b2ad0fb681b681b7dfb74fb685a7bfb7c1343dab2fb68
            5a7315e0fb681a68b9687b690b441278d2b21a707b6901337b61fb681b68
            1b7dfb74fb685a7bfb7c1343dab2fb685a73fb7c03f00103002b03d07a69
            7b689a42e0d37b6918461c37bd4680bc7047e8a00020a8a0002080b584b0
            00aff860b9601346fb71fb68234a934204d0fb68224a934200d000bebb68
            002b00d100befb79c02b00d900befb681b4a934203d0fb681a4a93422bd1
            bb68002b28d0fb79c02b25d8fb68ba681a62fb681b681b7adbb25bb203f0
            3f035ab297f9073013435ab2fb681b68d2b21a72fb6893f904301846fff7
            33fefb681b68043300211846fff746fefb6893f904301846fff70efe00bf
            1037bd4680bde8a00020a8a00020684620f007018d4689b500af044800f0
            adf900bfbd46bde889408546704700bfe8a00020684620f007018d4689b5
            00af044800f09bf900bfbd46bde889408546704700bfa8a0002080b588b0
            00af786039607b684b4a934204d07b684a4a934200d000be7b68474a9342
            04d07b68464a934240f082807b683a689a6001f048fc7b68404a934203d1
            404b1b68fb6102e03f4b1b68fb61fb69da003b68b2fbf3f3bb61bb695b08
            7b617b699b093b613b699b017a69d31afb603b69db01ba69d21afb685b00
            d31afa681344fb603b69b3f5803f00d300be3b69b3f5803f4dd23b69012b
            2ad97b681b680c3307211846fff7bffd3b691a0a7b681b68d2b21a717b68
            1b683a69d2b21a707b681b680c3307211846fff7cafd7b681b6830330721
            1846fff7a6fdfb68ff2b00d900be7b681b68fa68d2b283f83c201fe07b68
            1b680c3307211846fff794fd3b691a0a7b681b68d2b21a717b681b683a69
            d2b21a707b681b680c3307211846fff79ffd7b681b68303307211846fff7
            98fd00bf2037bd4680bd00bfe8a00020a8a00020180000201c00002080b5
            84b000aff860b9601346fb71fb686d4a934204d0fb686c4a934200d000be
            fb68694a934216d1fb684ff080421a60fb680a221a71664b9b6c654a43f0
            800393640a20fff730fd614b9b6c604a23f08003936414e0fb685e4a1a60
            fb680b221a715b4b9b6c5a4a43f4807393640b20fff71afd564b9b6c554a
            23f480739364fb681b6800221a71fb681b6800221a72fb681b6808330121
            1846fff71ffdfb681b68083302211846fff718fdfb681b68083300211846
            fff711fdfb681b68103304211846fff727fdfb681b68103305211846fff7
            20fdfb681b68343301211846fff719fdfb681b68343300211846fff712fd
            fb681b68383301211846fff70bfdfb681b68303305211846fff704fdfb68
            1b68303306211846fff7fdfcfb681b68303307211846fff7f6fcfb681b68
            383303211846fff7effcfb681b68002283f84420fb681b68002283f84820
            fb681b68002283f84c20b968f868fff7abfefb681b68fa791a73fb68ba68
            9a60fb68fa791a73fb6800225a61fb6800221a61fb6800229a61fb680022
            1a62fb6800225a62fb680022da61fb6800229a62fb680022da62fb680022
            1a63fb6800225a63fb6800229a63fb680022da63fb6800225a7300bf1037
            bd4680bde8a00020a8a00020008003400000014080b584b000af78607b68
            7d4a934204d07b687c4a934200d000be7b68784a934204d07b68774a9342
            40f0da807b681b681b7adbb203f00f03fb73fb7b0c2b00f2cd8001a252f8
            23f0e515000045170000031600005d16000021160000451700003f160000
            4517000045170000451700004517000045170000211600007b689b6a002b
            00d100be7b689b6a002b00f0aa807b689b6a78689847a4e07b685b6a002b
            00d100be7b685b6a002b00f09d807b685b6a7868984797e07b681b6a002b
            00d100be7b681b6a002b00f090807b681b6a786898478ae07b68db69002b
            00d100be7b68db69002b00f083807b68db69786898477de07b681b682833
            00211846fff73bfc0346002b0cd07b68db6a002b00d100be7b68db6a002b
            03d07b68db6a786898477b681b68283301211846fff724fc0346002b0cd0
            7b681b6b002b00d100be7b681b6b002b03d07b681b6b786898477b681b68
            283302211846fff70dfc0346002b0cd07b685b6b002b00d100be7b685b6b
            002b03d07b685b6b786898477b681b68283303211846fff7f6fb0346002b
            0cd07b689b6b002b00d100be7b689b6b002b03d07b689b6b786898477b68
            1b68283304211846fff7dffb0346002b19d07b68db6b002b00d100be7b68
            db6b002b10d07b68db6b786898470be000be0ae000bf08e000bf06e000bf
            04e000bf02e000bf00e000bf00bf1037bd4680bd00bfe8a00020a8a00020
            80b586b000af78607b68354a934204d07b68344a934200d000be7b681b69
            002b00d100be7b685b69002b00d100be7b682b4a934203d07b682a4a9342
            4cd17b681b69002b48d07b685b69002b44d07b681b681b7dfb737b685a7b
            fb7b1343dab27b685a73fb7b03f02003002b24d010233b617b685a697b68
            9b69d31abb60bb680f2b01d8bb683b6100237b6110e07b681a697b689b69
            1a447b681b6812781a707b689b695a1c7b689a617b6901337b617a693b69
            9a42ead37b689a697b685b699a4209d17b6800225a617b681b6804330121
            1846fff72ffb00bf1837bd4680bde8a00020a8a0002080b582b000af0f4b
            5b68fb710d4b9b68dab2fb791340fb71fb7903f00203bb71bb79002b01d0
            00f0e5f8fb7903f001037b717b79002b01d000f006f800bf0837bd4680bd
            0060014080b584b000af624b1b78022b3dd0052b68d0012b40f0aa805e4b
            1b889bb2002b2fd05d4b1a685b4b1b889bb21946104600f00afaf860574b
            1b889bb21a46fb6893420fd2534b1b889ab2fb689bb2d31a9ab2504b1a80
            504b1a68fb6813444e4a136090e04b4b00221a804c4b1b68002b03d0474b
            02221a7085e0454b03221a7081e000be00f0baf97de0444b1b68002b24d0
            434b1a68414b1b681946104600f0d3f9b8603d4b1b68ba689a420cd23b4b
            1a68bb68d31a394a1360394b1a68bb681344374a13605ee0364b9b68354a
            23f0010393602e4b03221a7054e000be00f08df950e02d4b1b68002b1bd1
            2e4b1b68002b14d02c4b1b68294898470246274b1a60264b1b68002b0cd1
            264b9b68254a23f0010393601e4b03221a7002e000be00f06cf91d4b1b68
            002b09d11d4b9b681c4a23f001039360154b03221a7022e0174b1a68154b
            1b681946104600f07cf97860124b1a687b68d31a104a1360104b1a687b68
            13440e4a13600ce00d4b9b680c4a23f001039360002000f01ff9044b0022
            1a7000bf00bf1037bd4680bd00bf2d020020100200200c02002018020020
            14020020006001402802002080b584b000af7c4b1b69fb81fb8923f4ff43
            23f07f03bb81fb89fb72774b1b78052b00f2d68001a252f823f0911a0000
            0b1c00000b1c0000e91a0000371b0000df1b0000bb89002b00f0ca80fb7a
            f12b06d0fb7abb72bb7a184600f04ff9bfe0674b00221a80674b1b68654a
            128892b21344fa7a1a70624b1b889bb201339ab25f4b1a805f4b1b685d4a
            128892b2134400221a70594b04221a70a1e0bb89002b00f0a080fb7a7b72
            574b1b78dbb27a7a9a4215d1524b00221a80524b1b68504a128892b21344
            7a7a1a704d4b1b889bb201339ab24a4b1a80484b04221a7081e07b7a1846
            00f00af97ce0bb89002b06d0fb7a3b723b7a184600f000f974e0414b1a68
            3f4b1b889bb2013b13441b78f12b16d13c4b1b683a4a128892b21344fa7a
            1a70384b1a68364b1b889bb2013b13441b78184600f0e2f8304b00221a70
            53e02f4b1b889ab2314b1b889a4210d2fb7afb712c4b1b682a4a128892b2
            1344fa791a70274b1b889bb201339ab2244b1a80234b1b889ab2254b1b88
            9a4234d1204b1b889bb2184600f043f81c4b00221a702ae0bb89002b0bd1
            1a4b1b680133fa7a1a70022000f034f8144b00221a701ee0fb7abb71bb79
            184600f0a0f817e0bb89002b13d0fb7a7b717b79184600f096f80ce00020
            00f01cf8084b00221a7006e000bf04e000bf02e000bf00e000bf00bf1037
            bd4680bd00bf006001402d020020220200201c0200200902002020020020
            80b582b000af0346fb800a4b1b68002b0cd0084b1b68084a1268f9881046
            9847044b00221a60054b00221a7000bf0837bd4680bd240200201c020020
            2c02002080b582b000af0e4b1b78dbb2002b13d00c4b1b889bb21846fff7
            d2ff0a4b1b68094a43f001031360074b1b6803f001037b607b68002bf7d1
            00bf0837bd4680bd2c020020220200200060014080b485b000af78603960
            144b1b68134a23f0040313600023fb60104b5b6803f00103bb600de07a68
            fb6813441a780b4b1a61fb680133fb60084b5b6803f00103bb60bb68002b
            03d0fa683b689a42ead3fb6818461437bd4680bc70470060014080b582b0
            00af0346fb71064b1b68002b04d0044b1b68fa791046984700bf0837bd46
            80bd3002002080b483b000af0346fb71fb7903f01f02074997f907305b09
            012000fa02f2603341f8232000bf0c37bd4680bc704700bf00e100e080b5
            8ab000af78607b681b681b687b627b681b689b693b627b681b685b68fb61
            7b681b689b6abb617b681b681b6b7b617b681b685b6b3b617b681b68db69
            fb607b68354a93421dd17b68344a1a607b6802221a71324b9b6c314a43f4
            007393640220fff7b3ff2e4b9b6c2d4a23f4007393647b681b681a687b68
            1b6822f000421a601ce07b68274a1a607b6803221a71234b9b6c224a43f4
            806393640320fff795ff1f4b9b6c1e4a23f4806393647b681b681a687b68
            1b6822f000421a607b6a23f001037b627b681b687a6a1a607b681b683a6a
            9a617b681b68fa695a607b681b681a687b681b6842f001021a607b681b68
            ba699a627b681b687a691a637b681b683a695a637b681b68fa68da6100bf
            2837bd4680bd00bfaca1002000100040008003400010014080b485b000af
            78600023fb600de07b689a687b681b6913441a787b681b685a617b681b69
            5a1c7b681a617b681b689b6803f48073002b05d17b681a697b68db689a42
            e4d37b681a697b68db689a421bd30de07b685a697b68db6913441a787b68
            1b685a617b68db695a1c7b68da617b681b689b6803f48073002b05d17b68
            da697b689b699a42e4d37b685b6a002b1dd07b681a697b68db689a4217d3
            7b68da697b689b699a4211d306e07b681b6800225a61fb680133fb607b68
            1b689b6803f48073002b02d1fb681f2beed900bf1437bd4680bc704780b5
            84b000af78607b6893f88030022b15d10ce07b681b681b69fb607b685b6f
            002b04d07b685b6ffa68104698477b681b689b6803f04003002bebd02fe0
            7b6893f88030012b23d116e07b681b681b69fb607b681a6b7b68db6a9a42
            07d2f9687b689a6a7b681b6b1344cab21a707b681b6b5a1c7b681a637b68
            1b689b6803f04003002be1d00ae07b681b681b69fb607b681b689b6803f0
            4003002bf4d000bf1037bd4680bd80b586b000af78607b681b6820337b61
            7b68984a934204d07b68974a934200d000be7b691b6803f00203002b4ed0
            7b6893f88030022b15d10ce07b681b681b69fb607b685b6f002b04d07b68
            5b6ffa68104698477b681b689b6803f04003002bebd02fe07b6893f88030
            012b23d116e07b681b681b69fb607b681a6b7b68db6a9a4207d2f9687b68
            9a6a7b681b6b1344cab21a707b681b6b5a1c7b681a637b681b689b6803f0
            4003002be1d00ae07b681b681b69fb607b681b689b6803f04003002bf4d0
            7b681b680222da607b691b6803f00103002b11d07b6893f88030022b05d1
            7b681b687a68926f5a6102e07868fff7c8fe7b681b680122da607b691b68
            03f01003002b20d07868fff726ff7b681b6a002b0ad07b681b6a7a68906a
            7a68126b114698477868fff7acfe7b6801225a627b681b689a6a7b681b68
            22f010029a627b681b681022da607b691b6803f00403002b0ed07b681b68
            da6a7b681b6842f00402da627868fff7f8fd7b681b680422da607b691b68
            03f00803002b2dd07b681b68da6a7b681b6842f00802da627b6893f88030
            022b11d17b681b681b6823f47f0323f47f437a68126843f4807313607b68
            1b687a68926f5a610ae07b6893f88030012b05d17b6800221a617868fff7
            58fe7b681b680822da607b691b6803f02003002b41d07868fff7b6fe7b68
            1b6b3b617b681b6a002b17d07b6800225a627b6800225a617b6800229a61
            7b680022da617b681b681022da607b681b689a6a7b681b6842f010029a62
            7b6800221a617b681b68da6a7b681b6842f00c02da627868fff71efe7b68
            00221a637b68db6f002b06d07b68db6f7a68926a3969104698477b681b68
            2022da6000bf1837bd4680bdaca1002028a10020684620f007018d4689b5
            00af0448fff7b9fe00bfbd46bde889408546704700bfaca10020684620f0
            07018d4689b500af0448fff7a7fe00bfbd46bde889408546704700bf28a1
            002080b483b000af0346fb71fb7903f01f02074997f907305b09012000fa
            02f2203341f8232000bf0c37bd4680bc704700bf00e100e080b483b000af
            0346fb71fb7903f01f02074997f907305b09012000fa02f2603341f82320
            00bf0c37bd4680bc704700bf00e100e080b582b000af03463960fb713b68
            b3f1806f00d300be3b68b3f1806f2ed200f041f8184b08221a6000f068f8
            0120fff7cdff00f06bf8144bd3f88830124a43f00103c2f88830fb79012b
            03d10d4b01225a6002e00b4b00225a600a4b0022da60084b00221a61074b
            00225a61054b00229a6100f02df8034a3b68936000bf0837bd4680bd0070
            01400080034080b400af034b01221a6000bfbd4680bc704700bf00700140
            80b483b000af084b02221a60064b1b6803f001037b607b68002bf7d100bf
            0c37bd4680bc704700bf0070014080b483b000af084b10221a60064b1b68
            03f020037b607b68002bf7d100bf0c37bd4680bc704700bf0070014080b5
            00af0120fff749ff00bf80bd000080b483b000af074b4ff480721a60054b
            1b687b607b6801337b6000bf0c37bd4680bc70470070014080b485b000af
            f860b9607a60fb704d484d4b1a68f97813469b001344db01034403f5e273
            19604949474b1a6813469b0013449b000b440433fa681a604349424b1a68
            13469b0013449b000b440833ba681a603e493c4b1a6813469b0013449b00
            0b440c331b683948374a11681a0c12040b469b000b449b0003440c331a60
            7b68b3f5803f0fd97b68a3f58033304a1361bb6803f580332e4ad360fb68
            03f580332b4a93601ae02949274b1a6813469b0013449b000b440c331b68
            7a6892b211462248214a1268194313469b0013449b0003440c3319601e4b
            00221a611b491a4b1a6813469b0013449b000b440c331b681648154a1268
            43f4e00113469b0013449b0003440c3319600e490f4b1a6813469b001344
            db010b4403f5e07301221a600849094b1a6813469b001344db010b4403f5
            e67300221a6000bf1437bd4680bc704700bf000028424c02002000400140
            34020020684620f007018d4689b500af354a364b1b6803f52873012142f8
            23103349324b1a6813469b0013449b000b440c331b682e482d4a126823f4
            e00113469b0013449b0003440c331960274b1b680133264a1360254b1b68
            042b02d1234b00221a60234b1b69002b17d0224b1b68042b03d1204b0022
            1a6004e01e4b1b6801331d4a13601b4b98681a4bd968194b1a69184b1b7d
            fff70bff1ee01449134b1a6813469b0013449b000b440c331b6803f4e003
            002b10d10c4b00221a600e4b00221a600b4b01221a700a4b5b68002b03d0
            084b5b680120984700bfbd46bde889408546704700bf0000284250020020
            00400140340200204c020020684620f007018d4681b583b000af384b1b68
            3b603b6803f470633b603b68002b2fd03449344b1a6813469b001344db01
            0b4403f502731b68002b0ad02f4b02221a702e4b5b68002b03d02c4b5b68
            022098472849284b1a6813469b001344db010b4403f503731b68002b0ad0
            234b03221a70224b5b68002b03d0204b5b68032098471b4b1b683b603b68
            03f470433b603b68002b0ad0194b04221a70174b5b68002b03d0154b5b68
            0420984700237b6014e010497a6813469b001344db010b4403f5e4730122
            1a600a4a7b6803f52873012142f823107b6801337b607b68032be7d900bf
            0c37bd46bde88140854670470040014000002842500200203402002080b4
            85b000af03463960fb71fb79fb60fb681f2b00d900befb681f2b05d8054a
            fb6852f823303a681a6000bf1437bd4680bc70474056000080b485b000af
            03460a46fb711346bb71fb79fb60fb681f2b00d900befb681f2b18d80f4b
            d3f88830bb600122fb6802fa03f3db43ba681340bb60bb7903f00102fb68
            02fa03f3ba681343bb60044abb68c2f8883000bf1437bd4680bc704700bf
            0030014080b483b000af78607b68db68c3f30053dbb2002b04d07b681b68
            c3f3dc0304e07b681b68c3f3dc039b1418460c37bd4680bc704780b483b0
            00af786039607b681b683a681a6000bf0c37bd4680bc704780b483b000af
            78607b681b681b6818460c37bd4680bc704780b485b000af786039600023
            fb737b681b79002b01d1072350e07b681b79c3f12003bb7346e07b681a68
            bb7b11335b0113441b68c3f30003dbb2002b37d07b681a68bb7b11335b01
            13445b68c3f3dc013a68136861f3df0313607b681a68bb7b5b01134403f5
            0b731a683b689a607b681a68bb7b5b01134403f50a731a683b685a607b68
            1a68bb7b11335b0113441a683b68da607b681a68bb7b11335b011a441368
            43f0010313600123fb7305e0bb7b0133bb73bb7b1f2bb5d9fb7b18461437
            bd4680bc704780b584b000aff860b9601346fb80fb68002b00d100bebb68
            002b00d100befb88202b00d900befb88002b00d100befb68002b42d0bb68
            002b3fd048220021f86802f0c7fdfb68ba681a60fb88202b07d8fb88002b
            04d0fb68fa88a3f8442003e0fb680122a3f84420fb681868002301220021
            fef7d6f9fb681b68243300211846fef7cbf9fb681b681c3303211846fef7
            c4f9fb681b680433ff211846fef7bdf9fb681b68183300211846fef7b6f9
            fb681b6803211846fef7b0f900bf1037bd4680bd80b582b000af78607b68
            002b00d100be7b68002b25d07b681868002301220021fef79ef97b680022
            83f846207b681b681c3303211846fef78ff97b681b680433ff211846fef7
            88f97b681b68183300211846fef781f97b681b6803211846fef77bf900bf
            0837bd4680bd000080b500af00f0faf8044b5b69034a43f400735361fdf7
            98fc00bf80bd00ed00e080b588b000af304bd3f8983003f08063fb61fb69
            002b4cd12b4bd3f8983003f48053bb61bb69002b15d1284b284a1a60284b
            294a1a60294b294a1a60294b284a1a60294b224a1a60284b214a1a60284b
            1f4a1a6034e0274a3b1d92e8030083e80300194bd3f89c309b0903f00703
            7b613a1d7b6913441b78fb74fb7c012b0ad0022b0dd0002b0fd100f038f8
            f860f86800f052f814e04ff4004000f04df80fe0154800f049f80be01348
            00f045f800bf06e000f023f8f860f86800f03df8ffe700bf2037bd4680bd
            00800340140000200020a107180000200090d0031c0000200048e8012000
            002024000020280000202c000020c056000040420f0080b483b000af0a4b
            d3f8503103f004033b603b68002b02d1064b7b6001e0064b7b607b681846
            0c37bd4680bc704700bf0080034040787d0180f0fa0280b483b000af7860
            0c4a7b6813600c4a7b6813600b4a7b6813600b4b0b4a1a600b4a7b681360
            0b4a7b6813600a4a7b68136000bf0c37bd4680bc70471400002018000020
            1c000020200000200048e80124000020280000202c00002080b483b000af
            0e4bd3f84c313b603b684ff60202934204d03b680a4a934203d005e00123
            7b6005e002237b6002e000237b6000bf7b6818460c37bd4680bc70470080
            034002f8010080b582b000affff7d7ff78607b68012b02d100f007f800e0
            00bf00bf0837bd4680bd000080b400af094bd3f89830084a43f48073c2f8
            9830054bd3f89830044a23f08063c2f8983000bfbd4680bc704700800340
            80b58ab000af78600023fb6101f0cefa594b1b68002b01d100f010f9574b
            1a687b681340002b40f08c807b68002b1cd008227b6813447b607b6803f0
            0703002b13d07b6823f0070308337b607b6803f00703002b09d04ff0a003
            83f31188bff36f8fbff34f8f7b61fee77b68002b68d0434b1b687a689a42
            63d8424b3b62414b1b687b6204e07b6a3b627b6a1b687b627b6a5b687a68
            9a4203d97b6a1b68002bf1d1354b1b687a6a9a424ad03b6a1b6808221344
            fb617b6a1a683b6a1a607b6a5a687b68d21a08235b009a421ed97a6a7b68
            1344bb61bb6903f00703002b09d04ff0a00383f31188bff36f8fbff34f8f
            3b61fee77b6a5a687b68d21abb695a607b6a7a685a60b86900f0faf81c4b
            1a687b6a5b68d31a1a4a1360194b1a681a4b1b689a4203d2164b1b68174a
            13607b6a5a68124b1b681a437b6a5a607b6a00221a6001f041fafb69002b
            01d1fdf754fffb6903f00703002b09d04ff0a00383f31188bff36f8fbff3
            4f8ffb60fee7fb6918462837bd4680bd9c9e0020a89e0020a09e0020949e
            0020a49e002080b586b000af78607b687b617b68002b46d008235b427a69
            13447b617b693b613b695a68204b1b681340002b09d14ff0a00383f31188
            bff36f8fbff34f8ffb60fee73b691b68002b09d04ff0a00383f31188bff3
            6f8fbff34f8fbb60fee73b695a68114b1b681340002b19d03b691b68002b
            15d13b695a680b4b1b68db431a403b695a6001f0ccf93b695a68074b1b68
            1344064a1360386900f06cf801f0cef900bf1837bd4680bda89e0020a09e
            002080b485b000af49f64043bb60274bfb60fb6803f00703002b0cd0fb68
            0733fb60fb6823f00703fb60ba68fb68d31a1f4a1344bb60fb687b601d4a
            7b6813601c4b00225a607b68ba681344fb600822fb689b1afb60fb6823f0
            0703fb60fb68154a1360144b1b6800225a60124b1b6800221a607b683b60
            3b68fa68d21a3b685a600c4b1a683b681a603b685b680a4a13603b685b68
            094a1360094b4ff000421a6000bf1437bd4680bc704700bf54020020949e
            00209c9e0020a49e0020a09e0020a89e002080b485b000af7860274bfb60
            02e0fb681b68fb60fb681b687a689a42f7d8fb68bb60fb685b68ba681344
            7a689a4208d1fb685a687b685b681a44fb685a60fb687b607b68bb607b68
            5b68ba681a44fb681b689a4218d1fb681a68144b1b689a420dd07b685a68
            fb681b685b681a447b685a60fb681b681a687b681a6008e00b4b1a687b68
            1a6003e0fb681a687b681a60fa687b689a4202d0fb687a681a6000bf1437
            bd4680bc7047949e00209c9e002080b485b000aff860b9607a60fb68043b
            fb60fb684ff080721a60fb68043bfb60bb6823f00102fb681a60fb68043b
            fb60084afb681a60fb68143bfb607a68fb681a60fb68203bfb60fb681846
            1437bd4680bc70474531000080b483b000af0c4b1b68b3f1ff3f09d04ff0
            a00383f31188bff36f8fbff34f8f7b60fee74ff0a00383f31188bff36f8f
            bff34f8f3b60fee730000020074b19680868b0e8f00f80f30988bff36f8f
            4ff0000080f311884ef00d0e7047b49e002000bf00bf06480068006880f3
            088862b661b6bff34f8fbff36f8f00df00bf00bf08ed00e080b584b000af
            284bfb60fb681b78dbb2bb60fb68ff221a70fb681b78dbb2fb71fb79dbb2
            23f05f03dab2204b1a70204b07221a6009e01e4b1b68013b1c4a1360fb79
            dbb25b00dbb2fb71fb79dbb203f08003802befd0164b1b681b02144a1360
            134b1b6803f4e063114a1360bb68dab2fb681a700f4b1b680e4a43f47003
            13600c4b1b680b4a43f07043136000f0b0f8094b00221a60fff7a3fffff7
            6fff002318461037bd4680bd00e400e0ac9e0020b09e002020ed00e03000
            002080b483b000af4ff0a00383f31188bff36f8fbff34f8f7b600e4b1b68
            01330d4a13600c4b1b68012b0ed10b4b1b68dbb2002b09d04ff0a00383f3
            1188bff36f8fbff34f8f3b60fee700bf0c37bd4680bc704700bf30000020
            04ed00e080b483b000af104b1b68002b09d14ff0a00383f31188bff36f8f
            bff34f8f7b60fee7094b1b68013b074a1360064b1b68002b04d100233b60
            3b6883f3118800bf0c37bd4680bc70473000002000000000eff30980bff3
            6f8f0d4b1a6820e9f00f10602de908404ff0a00080f3118801f03ff94ff0
            000080f31188bde8084019680868b0e8f00f80f30988bff36f8f7047b49e
            002000bf00bf80b582b000af4ff0a00383f31188bff36f8fbff34f8f7b60
            01f062f80346002b03d0064b4ff080521a6000233b603b6883f3118800bf
            0837bd4680bd04ed00e080b400af074b1b68074aa2fb03239b09064a013b
            1360064b07221a6000bfbd4680bc704714000020d34d621014e000e010e0
            00e080b485b000afeff30583fb60fb680f2b13d9154afb6813441b78fb72
            134b1b78fa7a9a4209d24ff0a00383f31188bff36f8fbff34f8f7b60fee7
            0d4b1b6803f4e0620c4b1b689a4209d94ff0a00383f31188bff36f8fbff3
            4f8f3b60fee700bf1437bd4680bc7047f0e300e0ac9e00200ced00e0b09e
            002080b483b000af78607b6803f108027b685a607b684ff0ff329a607b68
            03f108027b68da607b6803f108027b681a617b6800221a6000bf0c37bd46
            80bc704780b483b000af78607b6800221a6100bf0c37bd4680bc704780b4
            85b000af786039607b685b68fb603b68fa685a60fb689a683b689a60fb68
            9b683a685a60fb683a689a603b687a681a617b681b685a1c7b681a6000bf
            1437bd4680bc704780b485b000af786039603b681b68bb60bb68b3f1ff3f
            03d17b681b69fb600ce07b680833fb6002e0fb685b68fb60fb685b681b68
            ba689a42f6d2fb685a683b685a603b685b683a689a603b68fa689a60fb68
            3a685a603b687a681a617b681b685a1c7b681a6000bf1437bd4680bc7047
            80b485b000af78607b681b69fb607b685b687a6892689a607b689b687a68
            52685a60fb685b687a689a4203d17b689a68fb685a607b6800221a61fb68
            1b685a1efb681a60fb681b6818461437bd4680bc7047000080b584b000af
            786039607b68fb60fb68002b09d14ff0a00383f31188bff36f8fbff34f8f
            bb60fee7fff74afefb681a68fb68db6bf968096c01fb03f31a44fb685a60
            fb6800229a63fb681a68fb689a60fb681a68fb68db6b013bf968096c01fb
            03f31a44fb68da60fb68ff2283f84420fb68ff2283f845203b68002b14d1
            fb681b69002b1ad0fb681033184601f08cf80346002b12d00d4b4ff08052
            1a60bff34f8fbff36f8f09e0fb6810331846fff7f7fefb6824331846fff7
            f2fefff72efe012318461037bd4680bd00bf04ed00e080b58ab002aff860
            b9601346fb71fb68002b09d14ff0a00383f31188bff36f8fbff34f8f3b61
            fee7bb68002b02d10023fb6104e0fb68ba6802fb03f3fb61fb6950331846
            fff730fbb861bb69002b0bd0bb6950337b61fa79bb69009313467a69b968
            f86800f005f8bb6918462037bd4680bd80b584b000aff860b9607a60fb70
            bb68002b03d1bb69ba691a6002e0bb697a681a60bb69fa68da63bb69ba68
            1a640121b869fff744ffbb69fa7883f84c2000bf1037bd4680bd80b582b0
            00af78607b68002b0ed07b6800225a607b6800221a607b680022da600023
            00220021786800f01cf800bf0837bd4680bd80b586b000af0346fb710123
            7b6100233b61fb791a4639697869fff77bfff860f868fff7d3fffb681846
            1837bd4680bd80b58eb000aff860b9607a603b6000237b63fb683b633b6b
            002b09d14ff0a00383f31188bff36f8fbff34f8fbb62fee7bb68002b03d1
            3b6b1b6c002b01d1012300e00023002b09d14ff0a00383f31188bff36f8f
            bff34f8f7b62fee73b68022b03d13b6bdb6b012b01d1012300e00023002b
            09d14ff0a00383f31188bff36f8fbff34f8f3b62fee701f050f90346002b
            02d17b68002b01d1012300e00023002b09d14ff0a00383f31188bff36f8f
            bff34f8ffb61fee7fff70dfd3b6b9a6b3b6bdb6b9a4202d33b68022b29d1
            3a68b968386b00f035faf8623b6b5b6a002b10d03b6b2433184600f069ff
            0346002b13d03f4b4ff080521a60bff34f8fbff36f8f0ae0fb6a002b07d0
            394b4ff080521a60bff34f8fbff36f8ffff70afd012363e07b68002b03d1
            fff703fd00235ce07b6b002b06d107f11403184600f0a1ff01237b63fff7
            f5fc00f0f7fcfff7c3fc3b6b93f844305bb2b3f1ff3f03d13b6b002283f8
            44203b6b93f845305bb2b3f1ff3f03d13b6b002283f84520fff7d9fc3a1d
            07f114031146184600f09cff0346002b24d1386b00f0ccfa0346002b18d0
            3b6b10337a681146184600f0bafe386b00f057fa00f0cffc0346002b7ff4
            7caf0c4b4ff080521a60bff34f8fbff36f8f72e7386b00f045fa00f0bdfc
            6ce7386b00f03ffa00f0b7fc002318463837bd4680bd04ed00e080b58eb0
            00aff860b9607a603b60fb683b633b6b002b09d14ff0a00383f31188bff3
            6f8fbff34f8f7b62fee7bb68002b03d13b6b1b6c002b01d1012300e00023
            002b09d14ff0a00383f31188bff36f8fbff34f8f3b62fee73b68022b03d1
            3b6bdb6b012b01d1012300e00023002b09d14ff0a00383f31188bff36f8f
            bff34f8ffb61fee7fff7e0fceff311824ff0a00383f31188bff36f8fbff3
            4f8fba617b61bb69fb623b6b9a6b3b6bdb6b9a4202d33b68022b2cd13b6b
            93f8453087f82b303a68b968386b00f041f997f92b30b3f1ff3f12d13b6b
            5b6a002b16d03b6b2433184600f071fe0346002b0ed07b68002b0bd07b68
            01221a6007e097f82b300133dbb25ab23b6b83f8452001237b6301e00023
            7b63fb6a3b613b6983f311887b6b18463837bd4680bd80b58eb000aff860
            b9607a603b6000237b63fb683b633b6b002b09d14ff0a00383f31188bff3
            6f8fbff34f8f7b62fee7bb68002b03d13b6b1b6c002b01d1012300e00023
            002b09d14ff0a00383f31188bff36f8fbff34f8f3b62fee700f0d8ff0346
            002b02d17b68002b01d1012300e00023002b09d14ff0a00383f31188bff3
            6f8fbff34f8ffb61fee7fff795fb3b6b9b6bfb62fb6a002b46d03b6bdb68
            bb62b968386b00f028f93b68002b21d1fb6a5a1e3b6b9a633b6b1b68002b
            04d101f0bff802463b6b5a603b6b1b69002b27d03b6b1033184600f0e3fd
            0346002b1fd04f4b4ff080521a60bff34f8fbff36f8f16e03b6bba6ada60
            3b6b5b6a002b0fd03b6b2433184600f0cbfd0346002b07d0434b4ff08052
            1a60bff34f8fbff36f8ffff778fb012377e07b68002b03d1fff771fb0023
            70e07b6b002b06d107f11403184600f00ffe01237b63fff763fb00f065fb
            fff731fb3b6b93f844305bb2b3f1ff3f03d13b6b002283f844203b6b93f8
            45305bb2b3f1ff3f03d13b6b002283f84520fff747fb3a1d07f114031146
            184600f00afe0346002b31d1386b00f024f90346002b25d03b6b1b68002b
            08d1fff703fb3b6b5b68184600f048fffff72afb3b6b24337a6811461846
            00f01bfd386b00f0b8f800f030fb0346002b7ff455af0f4b4ff080521a60
            bff34f8fbff36f8f4be7386b00f0a6f800f01efb45e7386b00f0a0f800f0
            18fb386b00f0edf80346002b3ff43aaf002318463837bd4680bd04ed00e0
            80b586b000aff860b9607a6000237b61fb689b6b3b61fb681b6c002b0dd1
            fb681b68002b4dd1fb685b68184600f072ff7861fb6800225a6043e07b68
            002b19d1fb689868fb681b6c1a46b96801f01afcfb689a68fb681b6c1a44
            fb689a60fb689a68fb685b689a422bd3fb681a68fb689a6026e0fb68d868
            fb681b6c1a46b96801f000fcfb68da68fb681b6c5b421a44fb68da60fb68
            da68fb681b689a4207d2fb685a68fb681b6c5b421a44fb68da607b68022b
            05d13b69002b02d03b69013b3b613b695a1cfb689a637b6918461837bd46
            80bd80b582b000af786039607b681b6c002b18d07b68da687b681b6c1a44
            7b68da607b68da687b685b689a4203d37b681a687b68da607b68d9687b68
            1b6c1a46386801f0b6fb00bf0837bd4680bd80b584b000af7860fff734fa
            7b6893f84530fb7311e07b685b6a002b12d07b682433184600f09afc0346
            002b01d000f077fdfb7b013bdbb2fb7397f90f30002be9dc00e000bf7b68
            ff2283f84520fff73ffafff70ffa7b6893f84430bb7311e07b681b69002b
            12d07b681033184600f075fc0346002b01d000f052fdbb7b013bdbb2bb73
            97f90e30002be9dc00e000bf7b68ff2283f84420fff71afa00bf1037bd46
            80bd80b584b000af7860fff7e2f97b689b6b002b02d10123fb6001e00023
            fb60fff705fafb6818461037bd4680bd80b584b000af7860fff7ccf97b68
            9a6b7b68db6b9a4202d10123fb6001e00023fb60fff7edf9fb6818461037
            bd4680bd80b586b000aff860b9607a60fb687b61fff7b0f97b6993f84430
            5bb2b3f1ff3f03d17b69002283f844207b6993f845305bb2b3f1ff3f03d1
            7b69002283f84520fff7c6f97b699b6b002b06d17b6924337a68b9681846
            00f0d7fb7869fff750ff00bf1837bd4680bd80b58cb004aff860b9603b60
            1346fb80fb889b001846fef7d5fe78617b69002b0ed05820fef7cefef861
            fb69002b03d0fb697a691a6305e07869fef789ff01e00023fb61fb69002b
            13d0fa8800230393fb690293fb6a0193bb6a00933b68b968f86800f00ef8
            f86900f094f80123bb6102e04ff0ff33bb61bb6918462037bd4680bd80b5
            88b000aff860b9607a603b603b6b186b7b689b001a46a52101f0bcfa3b6b
            1a6b7b6803f18043013b9b001344bb61bb6923f00703bb61bb6903f00703
            002b09d04ff0a00383f31188bff36f8fbff34f8f7b61fee70023fb6114e0
            ba68fb69134493f900103a6bfb69134434330a461a70ba68fb69134493f9
            0030002b06d0fb690133fb61fb69092be7d900e000bf3b6b002283f83d20
            bb6a042b01d90423bb623b6bba6ada623b6bba6a9a643b6b0022da643b6b
            04331846fff7f5f93b6b18331846fff7f0f93b6b3a6b1a61bb6ac3f10502
            3b6b9a613b6b3a6b5a623b6b00221a653b6b002283f854203a68f968b869
            fef7feff02463b6b1a60fb6a002b02d0fb6a3a6b1a6000bf2037bd4680bd
            000080b582b000af7860fff7b6f82c4b1b6801332b4a13602b4b1b68002b
            09d1294a7b681360264b1b68012b10d100f020fc0de0254b1b68002b09d1
            224b1b68da6a7b68db6a9a4202d81e4a7b6813601f4b1b6801331d4a1360
            1c4b1a687b681a647b68db6a01229a40194b1b681343184a13607b68da6a
            13469b0013449b00154a1a447b68043319461046fff790f9fff7a1f80d4b
            1b68002b0ed00a4b1b68da6a7b68db6a9a4207d20b4b4ff080521a60bff3
            4f8fbff36f8f00bf0837bd4680bd8c9f0020b49e0020989f0020a89f0020
            949f0020b89e002004ed00e080b584b000af78600023fb607b68002b16d0
            134b1b68002b09d04ff0a00383f31188bff36f8fbff34f8fbb60fee700f0
            67f80021786800f061fe00f06ff8f860fb68002b07d1074b4ff080521a60
            bff34f8fbff36f8f00bf1037bd4680bd00bfb49f002004ed00e080b586b0
            02af1e4b019300230093002350221c491c48fff787fef860fb68012b02d1
            00f09dfef860fb68012b15d14ff0a00383f31188bff36f8fbff34f8fbb60
            124b4ff0ff321a60114b01221a60114b00221a60fef790ff0de0fb68b3f1
            ff3f09d14ff0a00383f31188bff36f8fbff34f8f7b60fee700bf1037bd46
            80bd00bfb09f0020c856000049490000ac9f0020989f0020909f002080b4
            00af044b1b680133034a136000bfbd4680bc704700bfb49f002080b584b0
            00af0023fb600023bb60414b1b68002b09d14ff0a00383f31188bff36f8f
            bff34f8f3b60fee7fef7a9ff394b1b68013b374a1360364b1b68002b61d1
            354b1b68002b5dd02ee0344bdb68db68fb60fb6818331846fff708f9fb68
            04331846fff703f9fb68db6a01229a402c4b1b6813432a4a1360fb68da6a
            13469b0013449b00274a1a44fb68043319461046fff791f8fb68da6a234b
            1b68db6a9a4202d3224b01221a601c4b1b68002bccd1fb68002b01d000f0
            6bfb1d4b1b687b607b68002b10d000f045f80346002b02d0164b01221a60
            7b68013b7b607b68002bf1d1134b00221a60104b1b68002b09d00123bb60
            0f4b4ff080521a60bff34f8fbff36f8ffef76affbb6818461037bd4680bd
            00bfb49f00208c9f00204c9f0020949f0020b89e0020b49e0020a09f0020
            9c9f002004ed00e080b483b000af044b1b687b607b6818460c37bd4680bc
            7047909f002080b586b000af00237b61504b1b68002b40f08c804e4b1b68
            01333b614c4a3b6913603b69002b1fd14a4b1b681b68002b09d04ff0a003
            83f31188bff36f8fbff34f8f3b60fee7434b1b68fb60424b1b68404a1360
            404afb681360404b1b6801333e4a136000f0eafa3d4b1b683a699a424dd3
            384b1b681b68002b01d1012300e00023002b04d0364b4ff0ff321a603ee0
            304b1b68db68db68bb60bb685b687b603a697b689a4203d22d4a7b681360
            2ee0bb6804331846fff72ff8bb689b6a002b04d0bb6818331846fff726f8
            bb68db6a01229a40234b1b681343224a1360bb68da6a13469b0013449b00
            1f4a1a44bb68043319461046fef7b4ffbb68da6a1b4b1b68db6a9a42b4d3
            01237b61b1e7174b1b68da6a144913469b0013449b000b441b68012b07d9
            01237b6104e0104b1b6801330f4a13600f4b1b68002b01d001237b617b69
            18461837bd4680bdb49f0020909f0020449f0020489f0020a49f0020ac9f
            0020949f0020b89e0020b49e00209c9f0020a09f002080b588b000af394b
            1b68002b03d0384b01221a6065e0364b00221a60354b1b681b6bfb614ff0
            a533bb61fb691b68ba699a4211d1fb6904331b68ba699a420bd1fb690833
            1b68ba699a4205d1fb690c331b68ba699a4208d0264b1a68254b1b683433
            19461046fcf790fb234b1b68fb60fb68b3fa83f3fb72fb7ac3f11f037b61
            1e497a6913469b0013449b000b441b68002b09d14ff0a00383f31188bff3
            6f8fbff34f8f7b60fee77a6913469b0013449b00124a13443b613b695b68
            5a683b695a603b695a683b6908339a4204d13b695b685a683b695a603b69
            5b68db68054a136000bf2037bd4680bd00bfb49f0020a09f0020b49e0020
            949f0020b89e002080b584b000af786039607b68002b09d14ff0a00383f3
            1188bff36f8fbff34f8ffb60fee7074b1b68183319467868fef7fffe0121
            386800f0edfb00bf1037bd4680bd00bfb49e002080b586b000aff860b960
            7a60fb68002b09d14ff0a00383f31188bff36f8fbff34f8f7b61fee70a4b
            1b6818331946f868fef7b7fe7b68002b02d04ff0ff33bb607968b86800f0
            c2fb00bf1837bd4680bdb49e002080b586b000af78607b68db68db683b61
            3b69002b09d14ff0a00383f31188bff36f8fbff34f8ffb60fee73b691833
            1846fef7e8fe1d4b1b68002b1cd13b6904331846fef7dffe3b69db6a0122
            9a40184b1b681343164a13603b69da6a13469b0013449b00134a1a443b69
            043319461046fef76dfe05e03b69183319460e48fef766fe3b69da6a0d4b
            1b68db6a9a4205d901237b610a4b01221a6001e000237b617b6918461837
            bd4680bd00bfb49f0020949f0020b89e00204c9f0020b49e0020a09f0020
            80b485b000af78607b68002b09d14ff0a00383f31188bff36f8fbff34f8f
            fb60fee7064b1a687b681a60054b1a687b685a6000bf1437bd4680bc7047
            a49f0020909f002080b586b000af786039607b68002b09d14ff0a00383f3
            1188bff36f8fbff34f8ffb60fee73b68002b09d14ff0a00383f31188bff3
            6f8fbff34f8fbb60fee7fef7e7fc1c4b1b683b613b681b68b3f1ff3f02d1
            00237b6126e07b681a68164b1b689a4207d07b685b683a699a4202d30123
            7b6118e07b685b683a69d21a3b681b689a420ed23b681a687b6859683b69
            cb1a1a443b681a607868fff790ff00237b6101e001237b61fef7e1fc7b69
            18461837bd4680bd909f0020a49f002080b400af034b01221a6000bfbd46
            80bc704700bfa09f002080b582b000af786000f054f8074b1b68012b07d9
            064b4ff080521a60bff34f8fbff36f8ffcf7eff9eee700bfb89e002004ed
            00e080b582b000af00237b600ce07a6813469b0013449b00124a13441846
            fef764fd7b6801337b607b68042befd90d48fef75bfd0d48fef758fd0c48
            fef755fd0c48fef752fd0b48fef74ffd0b4b054a1a600a4b054a1a6000bf
            0837bd4680bd00bfb89e00201c9f0020309f00204c9f0020609f0020789f
            0020449f0020489f002080b582b000af28e0fff770fc174b1b68002b0cbf
            01230023dbb27b60fff774fc7b68002b19d1fef72ffc104bdb68db683b60
            3b6804331846fef79cfd0c4b1b68013b0b4a13600b4b1b68013b094a1360
            fef748fc386800f00ff8064b1b68002bd2d100bf0837bd4680bd00bf609f
            00208c9f0020749f002080b582b000af78607b681b6b1846fef721fa7868
            fef71efa00bf0837bd4680bd80b483b000af0e4b1b681b68002b01d10123
            00e00023002b04d00a4b4ff0ff321a6008e0064b1b68db68db687b607b68
            5b68044a136000bf0c37bd4680bc7047449f0020ac9f002080b483b000af
            0b4b1b68002b02d101237b6008e0084b1b68002b02d102237b6001e00023
            7b607b6818460c37bd4680bc704700bf989f0020b49f002080b584b000af
            78607b68fb607b68002b62d0fb68da6a324b1b68db6a9a425bd2fb689b69
            002b06db2d4b1b68db6ac3f10502fb689a61fb685969fb68da6a13469b00
            13449b00274a1344994201d1012300e00023002b3ad0fb6804331846fef7
            fbfc0346002b15d1fb68da6a1d4913469b0013449b000b441b68002b0ad1
            fb68db6a012202fa03f3da43174b1b681340154a1360124b1b68da6afb68
            da62fb68db6a01229a40104b1b6813430e4a1360fb68da6a13469b001344
            9b00094a1a44fb68043319461046fef76bfc04e0044b1b68da6afb68da62
            00bf1037bd4680bdb49e0020b89e0020949f002080b586b000af78607b68
            3b6100237b617b68002b6cd0394b1b683a699a4209d04ff0a00383f31188
            bff36f8fbff34f8ffb60fee73b69db6c002b09d14ff0a00383f31188bff3
            6f8fbff34f8fbb60fee73b69db6c5a1e3b69da643b69da6a3b699b6c9a42
            44d03b69db6c002b40d13b6904331846fef77afc0346002b15d13b69da6a
            1f4913469b0013449b000b441b68002b0ad13b69db6a012202fa03f3da43
            184b1b681340174a13603b699a6c3b69da623b69db6ac3f105023b699a61
            3b69db6a01229a400f4b1b6813430d4a13603b69da6a13469b0013449b00
            084a1a443b69043319461046fef7e5fb01237b617b6918461837bd4680bd
            00bfb49e0020b89e0020949f002080b400af074b1b68002b04d0054b1b68
            da6c0132da64034b1b681846bd4680bc704700bfb49e002080b584b000af
            78603960fef7a1fa1e4b1b681b6d002b13d11b4b1b68012283f854203b68
            002b0bd00121386800f0c0f8164b4ff080521a60bff34f8fbff36f8ffef7
            b4fafef784fa0f4b1b681b6dfb60fb68002b0cd07b68002b04d00a4b1b68
            00221a6504e0084b1b68fa68013a1a65054b1b68002283f85420fef797fa
            fb6818461037bd4680bdb49e002004ed00e080b58ab000af786039607b68
            002b09d14ff0a00383f31188bff36f8fbff34f8fbb61fee7fef700fb7b68
            7b62eff311824ff0a00383f31188bff36f8fbff34f8f7a613b617b693b62
            7b6a93f85430fb777b6a022283f854207b6a1b6d5a1c7b6a1a65fb7f012b
            45d17b6a9b6a002b09d04ff0a00383f31188bff36f8fbff34f8ffb60fee7
            204b1b68002b1cd17b6a04331846fef78bfb7b6adb6a01229a401b4b1b68
            1343194a13607b6ada6a13469b0013449b00164a1a447b6a043319461046
            fef719fb05e07b6a183319461148fef712fb7b6ada6a104b1b68db6a9a42
            09d93b68002b03d03b6801221a6002e00b4b01221a603b6abb60bb6883f3
            118800bf2837bd4680bd00bfb49f0020949f0020b89e00204c9f0020b49e
            0020a09f002080b584b000af78603960294b1b68fb60284b1b6804331846
            fef738fb0346002b0bd1244b1b68db6a012202fa03f3da43214b1b681340
            204a13607b68b3f1ff3f0ad13b68002b07d01a4b1b68043319461a48fef7
            c0fa26e0fa687b681344bb60144b1b68ba685a60ba68fb689a4209d2134b
            1a680f4b1b68043319461046fef7cdfa10e00f4b1a680a4b1b6804331946
            1046fef7c3fa0c4b1b68ba689a4202d2094abb68136000bf1037bd4680bd
            00bf909f0020b49e0020949f0020789f0020489f0020449f0020ac9f0020
            80b584b002af00237b6000f08dfa104b1b68002b0ad00f4b019302230093
            0023a0220d490d48fef7cfff78607b68002b09d14ff0a00383f31188bff3
            6f8fbff34f8f3b60fee77b6818460837bd4680bde89f0020ec9f0020e056
            00002951000080b58ab000aff860b9607a603b6000237b62fb68002b09d1
            4ff0a00383f31188bff36f8fbff34f8f3b62fee7194b1b68002b2ad0bb68
            7b617b68bb61fb68fb61bb68052b18dcfff741fd0346022b09d1104b1868
            07f1140100233a6bfef7a0fb786212e00b4b186807f1140100230022fef7
            96fb786208e0064b186807f1140100233a68fef786fc78627b6a18462837
            bd4680bde89f002080b588b002af786039601c4b1b68db68db687b617b69
            04331846fef755fa7b69db69012b21d17b699a697b68d1187b683a687869
            00f0c8f80346002b15d00023009300237a6800217869fff78dff38613b69
            002b09d14ff0a00383f31188bff36f8fbff34f8ffb60fee77b695b6a7869
            984700bf1837bd4680bd00bfe09f002080b584b000af786007f108031846
            00f057f8f860bb681946f86800f003f800f0d5f8f1e780b584b000af7860
            3960fff7c7f807f10803184600f066f8f860bb68002b30d13b68002b0ad1
            7a68fb689a4206d8fff7c3f8f9687868fff791ff24e03b68002b08d0134b
            1b681b68002b0cbf01230023dbb23b600f4b18687a68fb68d31a3a681946
            fef7affefff7a7f80346002b0ad1094b4ff080521a60bff34f8fbff36f8f
            01e0fff799f800bf1037bd4680bd00bfe49f0020e89f002004ed00e080b4
            85b000af78600e4b1b681b68002b0cbf01230023dbb21a467b681a607b68
            1b68002b05d1074b1b68db681b68fb6001e00023fb60fb6818461437bd46
            80bc704700bfe09f002080b584b000af7860fff700f9f8600b4b1b68fa68
            9a4205d200f0e6f87b6801221a6002e07b6800221a60044afb681360fb68
            18461037bd4680bd00bff09f002080b586b000aff860b9607a603b600023
            7b61fb68ba685a60fb68fa681a61ba687b689a4212d87a683b68d21afb68
            9b699a4202d301237b611be0104b1a68fb68043319461046fef723f912e0
            7a683b689a4206d2ba683b689a4202d301237b6107e0074b1a68fb680433
            19461046fef70ff97b6918461837bd4680bde49f0020e09f002080b58cb0
            02af7ae0bb68002b76db3b697b627b6a5b69002b04d07b6a04331846fef7
            2cf93b1d1846fff788ff3862bb68092b64d801a252f823f000bf59530000
            5953000059530000f3530000b3530000e95300005953000059530000f353
            0000b3530000fa687b6a9b69d118fb683a6a786afff783ff0346002b40d0
            7b6a5b6a786a98477b6adb69012b38d1fa687b6a9b691a44002300930023
            0021786afff73dfef861fb69002b29d14ff0a00383f31188bff36f8fbff3
            4f8fbb61fee7fa687b6a9a617b6a9b69002b09d14ff0a00383f31188bff3
            6f8fbff34f8f7b61fee77b6a9a693b6ad1183b6a3a6a786afff745ff04e0
            786afdf76dfd00e000bf084b186807f1080100230022fef765fb0346002b
            7ff479af00bf2837bd4680bd00bfe89f002080b588b002af44e02b4b1b68
            db681b687b61294b1b68db68db683b613b6904331846fef799f83b695b6a
            386998473b69db69012b2dd13b699b697a691344fb60fa687b699a420ed9
            3b69fa685a603b693a691a61184b1a683b69043319461046fef742f815e0
            0023009300237a6900213869fff7c1fdb860bb68002b09d14ff0a00383f3
            1188bff36f8fbff34f8f3b60fee7094b1b681b68002bb5d1064b1b687b60
            064b1b68044a1360044a7b68136000bf1837bd4680bde09f0020e49f0020
            80b500affdf7d2fe0d4b1b68002b13d10c48fdf7bbff0c48fdf7b8ff0b4b
            094a1a600b4b084a1a6000220c210520fef7c5f80246024b1a60fdf7e6fe
            00bf80bde89f0020b89f0020cc9f0020e09f0020e49f002070b500260c4d
            0d4c641ba410a64209d100f0d4f800260a4d0a4c641ba410a64205d170bd
            55f8043b98470136eee755f8043b98470136f2e700570000005700000057
            0000045700000a44914200f1ff3300d1704710b511f8014b914203f8014f
            f9d110bd03460244934200d1704703f8011bf9e710b50b4662b1013a08d0
            13f8014b00f8014b002cf7d1581a013810bd0022027013f8012b002afbd1
            f5e7034613f8012b002afbd1181a0138704700000d0a4344482054534154
            352076302e30340d0a004d42534154204653572056302e370a0d00000000
            00010203040506074c4544205370696e6e65720055415254302052656365
            697665720000546573742057440043414e0048656c6c6f20576f726c6400
            0030014004300140083001400c3001401030014014300140183001401c30
            01402030014024300140283001402c300140303001403430014038300140
            3c3001404030014044300140483001404c30014050300140543001405830
            01405c3001406030014064300140683001406c3001407030014074300140
            783001407c300140000100010202030349444c4500000000092563092575
            0925750925750d0a0000546d722053766300f8b500bff8bc08bc9e467047
            f8b500bff8bc08bc9e46704719050000f104000000000000000000000000
            0050000001500800080001000c01010000000020a1070090d0030048e801
            0048e8010020a1070020a1070020a107aaaaaaaa00000000000000000000
            0000
            <crc>
                59de
            </crc>
        </region>
    </nvm>
</Actel_Data_File>
