<Actel_Data_File>
    <format name="NVM File" version="01.00.00"/>
    <header>
        <die>
            M2S010
        </die>
        <family>
            SmartFusion2
        </family>
        <module>
            
        </module>
        <package>
            144 TQ
        </package>
        <version>
            12.600.0.14
        </version>
    </header>
    <nvm>
        <region name="FSW_Program" address="0x000000" retrieveAddressFromFile="true" size="35504" format="HEX" type="Data Storage" wordSize="32" numberWords="8876" memFile="C:/Users/Files/MBSAT/working/ManitobaSat-Flight-Software/mbsat-fsw-softconsole/Production/mbsat-fsw-softconsole.hex" memType="INTELHEX" memFileTimeStamp="1589228251" clientType="public" program="true">
            00000120910100007f030000810300008303000085030000870300000000
            0000000000000000000000000000d15800008b03000000000000815a0000
            c95a000091030000930300007144000095440000990300009b0300009d03
            00009f030000a1030000a3030000c1200000e5200000a9030000ab030000
            ad030000af030000ad050000b3030000b5030000b92a0000b9030000bb03
            0000bd030000bf030000c1030000c3030000c5030000a9470000a1480000
            cb030000cd030000cf030000d1030000d3030000d5030000d7030000d903
            0000db030000dd030000df030000e1030000e3030000e5030000e7030000
            e9030000eb030000ed030000ef030000f1030000f3030000f5030000f703
            0000f9030000fb030000fd030000ff030000010400000304000005040000
            07040000090400000b0400000d0400000f04000011040000130400001504
            000017040000190400001b0400001d0400001f0400002104000023040000
            2504000027040000290400002b0400002d0400002f040000310400003304
            000000000000000000004ff0000bdff8be020068dff8b612096801f00301
            00f01c00142801d14bf0020b002901d04bf0010bbbf1000f05d0a748a749
            dff8722200f09ff8a64880470bf0020abaf1000f0cd0dff86e02dff86e12
            02680b680fb44ff000024ff0ff0302600b609d484ff000024ff001030228
            08d1dff83a120a60dff83e120a60dff832120b60012808d1dff82a120a60
            dff826120a60dff81a120b609048002809d190489049914a00f030f89048
            9149914a00f02bf891489149924a00f026f891489249dff8e22100f058f8
            bbf1000f10d08f488f49dff8d62100f04ff80bf0020abaf1000f05d00fbc
            02600b6000bfaff30080dff820020ff2030e00474ff000004ff00001dff8
            14f2fee72de9f841884225d0b2eb010200d5fee740ea010313f0030302d0
            00f01df819e04ff0000390461211f7d09a421cbff0c8f0c103f10103f8d1
            08f00f08b8f1000f08d004780c7000f1010001f10101b8f10108f6d1bde8
            f88108b54ff0000303780b7000f1010001f10101013af7d108bd884237d0
            00f00306002e14d04ff00405a5eb06044ff0080707fb06f8914669fa08f9
            002c07d080f8009069fa07f900f10100013cf5e74ff000060f46091a8846
            0911914614461546b14206d018bfa0e8340206f10106b142f8d108f00f08
            b8f1000f07d002704fea322200f10100b8f10108f4e77047fee7fee7fee7
            fee7fee7fee7fee7fee7fee7fee7fee7fee7fee7fee7fee7fee7fee7fee7
            fee7fee7fee7fee7fee7fee7fee7fee7fee7fee7fee7fee7fee7fee7fee7
            fee7fee7fee7fee7fee7fee7fee7fee7fee7fee7fee7fee7fee7fee7fee7
            fee7fee7fee7fee7fee7fee7fee7fee7fee7fee7fee7fee7fee7fee7fee7
            fee7fee7fee7fee7fee7fee7fee7fee7fee7fee7fee7fee7fee7fee7fee7
            fee7fee7fee7fee7fee7fee7fee7fee7fee7fee7fee7fee7fee770470000
            0000a2a2a2a2008003400880034010800340308003403480034038800340
            18080240000000f000200000012025520000000000000000000000000000
            0000000090010000b0040000b0040000a0890000a0890000000000201001
            002010010020d0a40020d0a4002000f000207d7c0000411b000000000000
            0348044b834202d0034b03b1184770471001002010010020000000000548
            0649091a891001ebd171491002d0034b03b1184770471001002010010020
            0000000010b5064c237843b9fff7daff044b13b10448aff3008001232370
            10bd10010020000000007489000008b5054b1bb105490548aff30080bde8
            0840fff7cfbf00bf00000000140100207489000080b400af034b044ada60
            00bfbd4680bc704700bf0050004042de15ac80b400af034bd3f89c311846
            bd4680bc704700bf0080034080b400af034b0122c3f89c2100bfbd4680bc
            70470080034080b582b000af7860fff7e2ff0346002b01d0fff7e9fffff7
            cdff4ff47a5006f0c7f9f8e7684620f007018d4681b585b000af264804f0
            66fa03467b607b6803f48053002b3bd02ee0214804f033fa0246204b1a60
            1e4bdb68c3f30343dbb21a461c4b1a710023fb600fe0194afb6813440433
            1b785bb2d9b2164afb68134408330a461a70fb680133fb60124b1b791a46
            fb689342e9db104b1868002300220d4905f064fdb8600a49084804f037fa
            0346012bc9d04ff48051044804f015fa00bf1437bd46bde8814085467047
            88a200202c0100204001002084a2002080b584b000af0123fb600023bb60
            13e0012005f02bfc01461f4abb6842f823101d4abb6852f82330002b02d1
            0023fb6005e0bb680133bb60bb68012be8ddfb68002b24d000237b601ee0
            7a681346db001344db00114a9818114a7b6852f82310104a7b6832f81330
            1a4604f04cfa7a681346db001344db00084a1344184604f0a3fa7b680133
            7b607b68012bddddfb6818461037bd4680bd24a3002094a2002000000020
            0800002080b582b000af0346fb71fb790521184604f040f9fb7901211846
            04f057f900bf0837bd4680bd000080b586b002af3b600346fb710b46bb71
            13467b713a8b3b8c1344fb60f86804f08ffeb8603b8b1a463968b86807f0
            b0fa3b8bba6813443a8cf969184607f0a8fafa791346db001344db00134a
            1344ba791146184604f085fafa791346db001344db000d4a9818fb689ab2
            002300930023b96804f00afbfa791346db001344db00054a1344ba791146
            184604f0b3fa00bf1037bd4680bd00bf94a2002080b584b002af3b600346
            fb710b46bb7113467b71fa791346db001344db00124a1344ba7911461846
            04f04dfafa791346db001344db000c4a98183a8a3b8b00937b69396804f0
            d3fafa791346db001344db00054a1344ba791146184604f07cfa00bf0837
            bd4680bd94a2002080b483b000af03463960fb7197f90730002b0bda3b68
            dab20c49fb7903f00f03043b1201d2b20b441a7609e03b68dab2074997f9
            07301201d2b20b4483f8002300bf0c37bd4680bc704700bf00ed00e000e1
            00e080b582b000af7860032279680f4801f09dfa012005f014fb02460d4b
            1a6000220421052005f096fa02460a4b1a600a230a211846fff7baff0022
            0749034801f0a3fb00bf0837bd4680bd00bf78a3002034a300202ca30020
            6109000080b586b000af78607b683b61154bfb60154bbb604ff0ff310120
            06f0bdfdbb681b68002b10d005f05ff8bb681b681a46f9680e4807f0d0f9
            bb681b687b61bb6800221a6005f07ef87a690849084800f02dfa3b69064a
            9342dcd17969034800f047f8d7e750010020500300205002002078a30020
            80b588b000af78600023fb60174b1b68fb61174bbb61174b7b617b691b68
            ba69134404221946786801f0e8fa38613b69002b16d07b691a683b691a44
            7b691a6007f10c031946f86906f0b4fdfb68002b07d0094b4ff080521a60
            bff34f8fbff36f8f00bf2037bd4680bd00bf30a300205001002050030020
            04ed00e080b58cb000af78603960814b1b78002b40f0bd807f4b1b881a46
            7f4b13443a687968184607f060f93b689ab2794b1b8813449ab2774b1a80
            764b1b88013b764ad35c0a2b40f0a881744b186800234ff0ff32002105f0
            f4fb0346012b40f09c816d4b1b78752b12d16b4b5b78312b03d16b4b0122
            1a7006e0674b5b78302b02d1674b00221a70624b01221a706ee0624b1b78
            642b14d1604b5b78312b03d1604b01221a7006e05c4b5b78302b02d15c4b
            00221a705a4b1b78184600f021ff55e0554b1b78762b14d1534b5b78312b
            03d1534b01221a7006e04f4b5b78302b02d14f4b00221a704e4b1b781846
            00f042fe3ce0494b1b78702b14d1474b5b78312b03d1474b01221a7006e0
            434b5b78302b02d1434b00221a70414b1b78184600f0a1fe23e03c4b1b78
            612b05d110223d493d4800f043f919e0374b1b78622b15d104f0c8fdf862
            07f10c03fa6a3749184607f022fb07f10c03184607f03dfb024607f10c03
            1946304800f028f9294b00221a804ff480720021274807f0c3f8274b1868
            00230022002105f0ccf904e1204b1b78012b4ed11f4b1b881a461e4b1344
            3a687968184607f09ff83b689ab2194b1b8813449ab2174b1a80164b1b88
            013b154ad35c0a2b40f0e780124b1b88013b114a13440a2219460f4807f0
            7dfb03461a46134b1a60124b1a680d4b1b781946104600f0e5fe064b0222
            1a704ff480720021054807f07ef8024b00221a80c3e05403002056030020
            5803002034a30020580400203886000078a300204c8600005c0400205a4b
            1b78022b40f0ad80594b1b881a463b681344b3f5807f43d9554b1b88c3f5
            8073bb62524b1b881a46524b1344ba6a7968184607f03ef8bb6a9ab24c4b
            1b8813449ab24a4b1a80494b19884a4b1b781a46484800f0f0fe484b1b68
            444a12889b1a464a1360424b00221a80404b1b881a46404bd0187a68bb6a
            d1183a68bb6ad31a1a4607f016f83b689ab2bb6a9bb2d31a9ab2364b1b88
            13449ab2344b1a8054e0334b1b881a463b681344b3f5807f24d12f4b1b88
            1a462e4b13443a687968184606f0f7ff3b689ab2294b1b8813449ab2274b
            1a80264b1988274b1b781a46244800f0a9fe254b1b68214a12889b1a224a
            13601e4b00221a8027e01c4b1b881a461c4b13443a687968184606f0d2ff
            3b689ab2164b1b8813449ab2144b1a80164b1b68ff2b11d8114b1988124b
            1b781a46104800f080fe104b1b680c4a12889b1a0e4a13600a4b00221a80
            0b4b1b68002b07d1054b00221a7018220849094800f012f800bf3037bd46
            80bd540300205603002058030020580400205c0400205c86000078a30020
            80b586b000aff860b9607a6002237b617b68002b0ed07a68b968f86801f0
            4af802e0786905f0bcfdf86801f091f80346002bf6d000bf1837bd4680bd
            80b500af0820fff797fc00bf80bd000080b500affff7f4ff0349012003f0
            96fb03f0dafb00bf80bd80f0fa0290b587b002af78600023fb731e4802f0
            e1fd082300934ff48073002200211a4802f0defe0521082003f0bafd0521
            092003f0b6fd0121082003f0cefd0121092003f0cafd9f23bb7307f10803
            00210a461a800a469a707b685c6807f1080207f10e0003230121a0473b7a
            1f2b07d07b7a862b04d0bb7a012b01d00323fb73fb7b18461437bd4690bd
            3ca4002090b587b000aff860b9607a603b60bb68b3f5001f01d904232fe0
            0623fb75fb681c6807f11700002300220121a04702233b74bb681b0cdbb2
            7b74bb681b0adbb2bb74bb68dbb2fb74fb681c683b689bb207f110007a68
            0421a04707e006f0a0f90346022b02d1022005f020fdf86800f070f80346
            002bf1d1002318461c37bd4690bd90b587b000aff860b9607a603b60bb68
            b3f5001f01d9042318e00b233b74bb681b0cdbb27b74bb681b0adbb2bb74
            bb68dbb2fb7400233b75fb685c683b689bb207f110007a680521a0470023
            18461c37bd4690bd90b585b000af786039603b68b3f5001f01d904232ee0
            0623fb737b681c6807f10f00002300220121a04720233b723b681b0cdbb2
            7b723b681b0adbb2bb723b68dbb2fb727b681c6807f10800002300220421
            a04707e006f038f90346022b02d1642005f0b8fc786800f008f80346002b
            f1d1002318461437bd4690bd90b585b000af78600023fb730023bb730523
            7b737b685c6807f10e0207f10d0001230121a047bb7b03f00103fb73fb7b
            18461437bd4690bd90b585b000af78600023fb73af23bb7300237b737b68
            5c6807f10d0207f10e0001230121a0477b7b202b01d00323fb730523bb73
            00233b737b685c6807f10c0207f10e0001230121a047fb7b002b2cd1b723
            bb737b681c6807f10e00002300220121a04707e006f0d6f80346022b02d1
            642005f056fc786800f014f90346012bf1d07023bb730023fb727b685c68
            07f10b0207f10e0001230121a047fb7a03f00103002b01d10723fb73fb7b
            18461437bd4690bd90b589b000aff860b9607a603b600023fb77fb68db68
            ba689a4201d30423fb77fb7f002b59d10623bb77fb681c6807f11e000023
            00220121a04712233b76bb681b0edbb27b76bb681b0cdbb2bb76bb681b0a
            dbb2fb76bb68dbb23b77fb681c683b689bb207f118007a680521a04707e0
            06f077f80346022b02d1642005f0f7fbf86800f0b5f80346012bf1d07023
            fb750023bb75fb685c6807f1160207f1170001230121a047bb7d1b09dbb2
            03f00103002b06d1bb7d5b08dbb203f00103002b0bd00523fb7750237b75
            fb681c6807f11500002300220121a047fb7f18462437bd4690bd90b587b0
            00aff860b9607a603b6013233b74bb681b0edbb27b74bb681b0cdbb2bb74
            bb681b0adbb2fb74bb68dbb23b75fb685c683b689bb207f110007a680521
            a047002318461c37bd4690bd90b587b000af786039600023fb750623bb75
            7b681c6807f11600002300220121a04721233b743b681b0edbb27b743b68
            1b0cdbb2bb743b681b0adbb2fb743b68dbb23b757b681c6807f110000023
            00220521a04702e0642005f071fb786800f02ff80346012bf6d07023fb73
            0023bb737b685c6807f10e0207f10f0001230121a047bb7b5b09dbb203f0
            0103002b06d1bb7b5b08dbb203f00103002b0bd00623fb7550237b737b68
            1c6807f10d00002300220121a047fb7d18461c37bd4690bd90b585b000af
            78600023fb730523bb7300237b737b685c6807f10d0207f10e0001230121
            a0477b7b03f00103002b01d00123fb73fb7b18461437bd4690bd80b584b0
            00af78600223fb737b681b7c002b02d0012b08d00fe07b681b681846fff7
            7dfe0346fb7307e07b681b681846fff76afd0346fb7300bffb7b18461037
            bd4680bd80b586b000aff860b9607a603b600223fb75fb681b7c002b02d0
            012b0ad013e0fb6818683b687a68b968fff7b0fe0346fb7509e0fb681868
            3b687a68b968fff787fd0346fb7500bffb7d18461837bd4680bd80b586b0
            00aff860b9607a603b600223fb75fb681b7c002b02d0012b0ad013e0fb68
            18683b687a68b968fff7f9fe0346fb7509e0fb6818683b687a68b968fff7
            9ffd0346fb7500bffb7d18461837bd4680bd80b584b000af786039600223
            fb737b681b7c002b02d0012b09d011e07b681b6839681846fff7f9fe0346
            fb7308e07b681b6839681846fff7a4fd0346fb7300bffb7b18461037bd46
            80bd80b588b004aff8607a601a460b467b8113463b813b8902937b680193
            7b890093fb680a2200210020fff7bdf900bf1037bd4680bd80b588b004af
            f8607a601a460b467b8113463b813b8902937b6801937b890093fb680a22
            00210020fff755f900bf1037bd4680bd000080b586b002aff8607a601a46
            0b467b8113463b810021094802f030fc7a893b8900937b68f968054802f0
            e2fc0021034802f09afc00bf1037bd4680bd3ca4002080b588b002aff860
            7a601a460b467b8113463b817a893b8913447b61786903f0bfff38617b89
            1a46f968386906f0e0fb7b893a6913443a897968184606f0d8fb00210b48
            02f0fafb7b699ab20023009300233969064802f0abfc0021044802f063fc
            386904f062f800bf1837bd4680bd3ca4002080b582b000af78607b689b78
            1846fff7d9f800bf0837bd4680bd000080b582b000af00237b600be07a68
            13465b001344074a13441846fff7e3ff7b6801337b607b68002bf0dd00bf
            0837bd4680bd00bf5400002080b582b000af0023fb710d20fff7b0f800bf
            18460837bd4680bd000080b582b000af00237b600fe00b4a7b6813441b78
            0521184603f0e6f97b680121184600f00df87b6801337b607b68072becdd
            00bf0837bd4680bd00bf7886000080b582b000af786039607b68072b2dd8
            04f0e4f9174a7b6813441b783a68d2b21146184603f0dcf93b68002b0fd1
            01227b6802fa03f35bb2db435ab20e4b1b785bb213405bb2dab20b4b1a70
            0ce001227b6802fa03f35ab2074b1b785bb213435bb2dab2044b1a7004f0
            e6f900bf0837bd4680bd788600006004002080b584b000af78605523fb60
            04f0a8f900210020fff7b6ff00210120fff7b2ff04f0ccf94ff4fa6005f0
            4cf9294b1b78072b03d0274b1b78002b28d1264b93f90030dbb25b42dbb2
            5ab2234b1a7004f087f9204b1b7800211846fff793ff1d4b1b781a461c4b
            93f90030134401211846fff788ff04f0a2f9164b1a78164b93f90030dbb2
            1344dab2124b1a701ee004f067f9104b1b781a460f4b93f90030d31a0121
            1846fff76eff0a4b1b7800211846fff768ff04f082f9064b1a78064b93f9
            0030dbb21344dab2024b1a70f86805f0f9f8abe7570000205800002080b5
            92b000af0346fb71fb79002b02d04ff4807301e04ff480137b64ff2387f8
            43302d4b1b78002b05d1002001f046fc294b01221a70ff2387f8413007f1
            4103184601f0d5fc034687f8433097f841301a4607f12c032149184606f0
            e3fc07f12c03184606f0fefc024607f12c0319461b48fff7e9fa00211a48
            02f0a1fa796c002001f04bff034687f842300021154802f00cfb97f84230
            002b05d10f2212490f48fff7d1fa13e097f8422007f10c030e49184606f0
            b6fc07f10c03184606f0d1fc024607f10c0319460548fff7bcfa00bf4837
            bd4680bd680400208086000078a300203ca4002090860000a086000080b5
            8cb000af0346fb71fb79002b02d04ff4807301e04ff48013fb621a4b1b78
            002b05d1002001f0d1fb174b01221a70102216491648fff78ffa00211548
            02f047faf96a012001f0f1fe034687f82b300021104802f0b2fa97f82b20
            07f10c030d49184606f066fc07f10c03184606f081fc024607f10c031946
            0548fff76cfa00bf3037bd4680bd68040020ac86000078a300203ca40020
            a086000080b5adf5067d00af3b1d1860294b1b685b0ac7f80c32274b1b68
            c3f30803c7f808323b1d1b68002b02d04ff4807301e04ff48013c7f81432
            0023c7f810321ce01d4b586807f108024ff40073d7f81412fff72ffd07f1
            08034ff4007219461748fff72cfad7f8143203f50073c7f81432d7f81032
            0133c7f81032d7f81032d7f80c229a42dcd80c4b586807f10802d7f80832
            d7f81412fff70cfd07f10803d7f8082219460548fff709fa00bf07f50677
            bd4680bd640400204c00002078a3002090b589b000af78600b46fb70234a
            7b681360234b5b681846fff7a0fcfb78002b15d1204bfb610be01d4b5b68
            f9691846fff708fd1a4b5b68db68fa691344fb61174b5b685b68fa699a42
            edd312e0ff23bb610be0124b5b68b9691846fff7f2fc0f4b5b68db68ba69
            1344bb61bb69b3f5801fefd30c4b07f108040fcb07c42370074b586807f1
            08020d230021fff788fc0346fb7500bf2437bd4690bd640400204c000020
            ffff0f00c086000080b584b000af78600b467b8013467b707b78002b13d1
            174b5868174b19687b887a68fff767fc0346fb73fb7b002b1cd17a88114b
            1b6813440f4a136015e07b78012b12d10b4b58680c4b19687b887a68fff7
            50fc0346bb73bb7b002b05d17a88064b1b681344054a136000bf1037bd46
            80bd00bf4c0000205c0000206000002080b483b000af0346fb71fb7903f0
            1f02074997f907305b09012000fa02f2603341f8232000bf0c37bd4680bc
            704700bf00e100e080b582b000af0d4b5b690c4a23f0030353610a4b0322
            da610020fff7d7ff074b1b687b60054b9b687a689a4202d2034b034ada60
            00bf0837bd4680bd0050004042de15ac80b584b002af00f03bf800230193
            0123009300234ff47a721149124804f0b4fd7860114b019302230093104b
            4ff47a720f49104804f0a8fd78600023019301230093002350220c490c48
            04f09dfd786004f006ff002318460837bd4680bd00bfd086000075160000
            30a3002078a30020dc860000ed080000ec8600008905000080b500affff7
            f8fc4ff4e130fef760fefff794fffef746fdfff704f9fff7c2fcfff7dcfc
            034b5b681846fff785fb00bf80bd00bf4c00002080b483b000af4ff0a003
            83f31188bff36f8fbff34f8f7b60fee780b400af00bfbd4680bc704780b4
            85b000af786039604ff0a00383f31188bff36f8fbff34f8ffb60fee70160
            7047006870470eb503fa01f303ea020301686fea020201ea020141ea0301
            01600ebd006800ea020020fa01f0704701807047008870470eb503fa01f3
            03ea020301886fea020201ea020141ea030101800ebd008800ea020020fa
            01f0704701707047007870470eb503fa01f303ea020301786fea020201ea
            020141ea030101700ebd007800ea020020fa01f0704780b483b000af0346
            fb71fb7903f01f02064997f907305b09012000fa02f241f8232000bf0c37
            bd4680bc704700e100e080b483b000af0346fb71fb7903f01f02074997f9
            07305b09012000fa02f2603341f8232000bf0c37bd4680bc704700bf00e1
            00e080b483b000af78600b46fb707b6803f070427b685b0123f07e4323f0
            1f031343fa789200134403f100731a460123136000bf0c37bd4680bc7047
            80b483b000af78600b46fb707b6803f070427b685b0123f07e4323f01f03
            1343fa789200134403f100731a460023136000bf0c37bd4680bc704780b4
            83b000af78600b46fb707b6803f070427b685b0123f07e4323f01f031343
            fa789200134403f100731b68dbb218460c37bd4680bc704780b584b000af
            f860b9601346fb71fb68144a934204d0fb68134a934200d000befb791a46
            b968f86800f026fafb681b68303303211846fff7aafffb681b6834330221
            1846fff7a3fffb681b68383300211846fff79cfffb68044a5a6200bf1037
            bd4680bd78a3002038a300203526000080b584b000aff860b9607a60fb68
            204a934204d0fb681f4a934200d000bebb68002b00d100be7b68002b00d1
            00be7b68002b29d0bb68002b26d0fb68144a934203d0fb68134a93421ed1
            fb68ba681a61fb687a685a61fb6800229a61fb6893f904301846fff724ff
            fb680b4a5a62fb681b68043301211846fff734fffb6893f904301846fff7
            fcfe00bf1037bd4680bd78a3002038a300203526000080b485b000af7860
            0023fb730023bb737b68164a934204d07b68154a934200d000be7b68114a
            934203d07b68104a934215d17b681b681b7dbb737b685a7bbb7b1343dab2
            7b685a737b685b69002b06d1bb7b03f04003002b01d00123fb7397f90f30
            18461437bd4680bc704778a3002038a3002080b487b000aff860b9607a60
            00237b610023fb74fb68274a934204d0fb68264a934200d000bebb68002b
            00d100be7b68002b00d100befb681e4a934203d0fb681d4a934230d1bb68
            002b2dd07b68002b2ad0fb681b681b7dfb74fb685a7bfb7c1343dab2fb68
            5a7315e0fb681a68b9687b690b441278d2b21a707b6901337b61fb681b68
            1b7dfb74fb685a7bfb7c1343dab2fb685a73fb7c03f00103002b03d07a69
            7b689a42e0d37b6918461c37bd4680bc704778a3002038a3002080b584b0
            00aff860b9601346fb71fb68234a934204d0fb68224a934200d000bebb68
            002b00d100befb79c02b00d900befb681b4a934203d0fb681a4a93422bd1
            bb68002b28d0fb79c02b25d8fb68ba681a62fb681b681b7adbb25bb203f0
            3f035ab297f9073013435ab2fb681b68d2b21a72fb6893f904301846fff7
            33fefb681b68043300211846fff746fefb6893f904301846fff70efe00bf
            1037bd4680bd78a3002038a30020684620f007018d4689b500af044800f0
            adf900bfbd46bde889408546704700bf78a30020684620f007018d4689b5
            00af044800f09bf900bfbd46bde889408546704700bf38a3002080b588b0
            00af786039607b684b4a934204d07b684a4a934200d000be7b68474a9342
            04d07b68464a934240f082807b683a689a6003f082f87b68404a934203d1
            404b1b68fb6102e03f4b1b68fb61fb69da003b68b2fbf3f3bb61bb695b08
            7b617b699b093b613b699b017a69d31afb603b69db01ba69d21afb685b00
            d31afa681344fb603b69b3f5803f00d300be3b69b3f5803f4dd23b69012b
            2ad97b681b680c3307211846fff7bffd3b691a0a7b681b68d2b21a717b68
            1b683a69d2b21a707b681b680c3307211846fff7cafd7b681b6830330721
            1846fff7a6fdfb68ff2b00d900be7b681b68fa68d2b283f83c201fe07b68
            1b680c3307211846fff794fd3b691a0a7b681b68d2b21a717b681b683a69
            d2b21a707b681b680c3307211846fff79ffd7b681b68303307211846fff7
            98fd00bf2037bd4680bd00bf78a3002038a30020880000208c00002080b5
            84b000aff860b9601346fb71fb686d4a934204d0fb686c4a934200d000be
            fb68694a934216d1fb684ff080421a60fb680a221a71664b9b6c654a43f0
            800393640a20fff730fd614b9b6c604a23f08003936414e0fb685e4a1a60
            fb680b221a715b4b9b6c5a4a43f4807393640b20fff71afd564b9b6c554a
            23f480739364fb681b6800221a71fb681b6800221a72fb681b6808330121
            1846fff71ffdfb681b68083302211846fff718fdfb681b68083300211846
            fff711fdfb681b68103304211846fff727fdfb681b68103305211846fff7
            20fdfb681b68343301211846fff719fdfb681b68343300211846fff712fd
            fb681b68383301211846fff70bfdfb681b68303305211846fff704fdfb68
            1b68303306211846fff7fdfcfb681b68303307211846fff7f6fcfb681b68
            383303211846fff7effcfb681b68002283f84420fb681b68002283f84820
            fb681b68002283f84c20b968f868fff7abfefb681b68fa791a73fb68ba68
            9a60fb68fa791a73fb6800225a61fb6800221a61fb6800229a61fb680022
            1a62fb6800225a62fb680022da61fb6800229a62fb680022da62fb680022
            1a63fb6800225a63fb6800229a63fb680022da63fb6800225a7300bf1037
            bd4680bd78a3002038a30020008003400000014080b584b000af78607b68
            7d4a934204d07b687c4a934200d000be7b68784a934204d07b68774a9342
            40f0da807b681b681b7adbb203f00f03fb73fb7b0c2b00f2cd8001a252f8
            23f0a924000009260000c724000021250000e52400000926000003250000
            0926000009260000092600000926000009260000e52400007b689b6a002b
            00d100be7b689b6a002b00f0aa807b689b6a78689847a4e07b685b6a002b
            00d100be7b685b6a002b00f09d807b685b6a7868984797e07b681b6a002b
            00d100be7b681b6a002b00f090807b681b6a786898478ae07b68db69002b
            00d100be7b68db69002b00f083807b68db69786898477de07b681b682833
            00211846fff73bfc0346002b0cd07b68db6a002b00d100be7b68db6a002b
            03d07b68db6a786898477b681b68283301211846fff724fc0346002b0cd0
            7b681b6b002b00d100be7b681b6b002b03d07b681b6b786898477b681b68
            283302211846fff70dfc0346002b0cd07b685b6b002b00d100be7b685b6b
            002b03d07b685b6b786898477b681b68283303211846fff7f6fb0346002b
            0cd07b689b6b002b00d100be7b689b6b002b03d07b689b6b786898477b68
            1b68283304211846fff7dffb0346002b19d07b68db6b002b00d100be7b68
            db6b002b10d07b68db6b786898470be000be0ae000bf08e000bf06e000bf
            04e000bf02e000bf00e000bf00bf1037bd4680bd00bf78a3002038a30020
            80b586b000af78607b68354a934204d07b68344a934200d000be7b681b69
            002b00d100be7b685b69002b00d100be7b682b4a934203d07b682a4a9342
            4cd17b681b69002b48d07b685b69002b44d07b681b681b7dfb737b685a7b
            fb7b1343dab27b685a73fb7b03f02003002b24d010233b617b685a697b68
            9b69d31abb60bb680f2b01d8bb683b6100237b6110e07b681a697b689b69
            1a447b681b6812781a707b689b695a1c7b689a617b6901337b617a693b69
            9a42ead37b689a697b685b699a4209d17b6800225a617b681b6804330121
            1846fff72ffb00bf1837bd4680bd78a3002038a3002080b483b000af0346
            fb71fb7903f01f02064997f907305b09012000fa02f241f8232000bf0c37
            bd4680bc704700e100e080b483b000af0346fb71fb7903f01f02074997f9
            07305b09012000fa02f2203341f8232000bf0c37bd4680bc704700bf00e1
            00e080b483b000af0346fb71fb7903f01f02074997f907305b09012000fa
            02f2603341f8232000bf0c37bd4680bc704700bf00e100e080b582b000af
            786039601320fff7c4ff244b00229a601320fff7d8ff224a7b681360224b
            00221a70214b00221a70214b00221a60204b00221a80204b00221a601f4b
            00221a601f4a3b6813601e4b00221a801e4b00221a801d4b00221a601d4b
            00221a700f4b1b680e4a23f0200313600c4b1b680b4a43f010031360094b
            9b68084a23f001039360064b9b68054a43f0020393601320fff767ff00bf
            0837bd4680bd00bf00600140900400208c040020690400206c0400207004
            002074040020780400207c0400208004002082040020840400208d040020
            80b586b000afb9607a601a460346fb731346bb811320fff753ff2b4b0022
            9a601320fff767ff00f023fb284b01221a70274afb7b1370274b00221a60
            264b00221a80264b00221a60254b00221a60254a7b681360244abb891380
            244b00221a80234b00221a60234a3b6a1360184b1b78dbb2184600f022fb
            134b1b68124a43f004031360104b5b6803f001037b617b69002bf7d00c4a
            bb6853610b4b1b680a4a23f004031360144b03221a70064b9b68054a43f0
            020393601320fff7e9fe00bf1837bd4680bd00bf006001408c0400206904
            00206c0400207004002074040020780400207c0400208004002082040020
            88040020840400208d04002080b586b000aff8607a603b600b467b817b89
            002b00d100be1320fff7d3fe374b00229a601320fff7e7fe00f0a3fa344b
            01221a70fb681a78324b1a70324afb681360324a7b891380314a7b681360
            314a3b681360304a3b6a1360304abb8c13802f4b00221a802f4b00221a60
            2e4abb6a1360224b9b68214a43f002039360214b1b78dbb2184600f09bfa
            fb685a1c7b89013b1946104600f0b1fa78617b6901337b617b897a699a42
            12d2184b1b889ab27b699bb2d31a9ab2144b1a80124b1a687b691344104a
            1360184b01221a700de00e4b00221a800f4b1b68002b03d0134b02221a70
            02e0114b03221a701320fff751fe00bf1837bd4680bd00bf006001408c04
            0020690400206c0400207004002074040020780400207c04002080040020
            8204002088040020840400208d04002080b582b000af0f4b5b68fb710d4b
            9b68dab2fb791340fb71fb7903f00203bb71bb79002b01d000f0e5f8fb79
            03f001037b717b79002b01d000f006f800bf0837bd4680bd0060014080b5
            84b000af624b1b78022b3dd0052b68d0012b40f0aa805e4b1b889bb2002b
            2fd05d4b1a685b4b1b889bb21946104600f028faf860574b1b889bb21a46
            fb6893420fd2534b1b889ab2fb689bb2d31a9ab2504b1a80504b1a68fb68
            13444e4a136090e04b4b00221a804c4b1b68002b03d0474b02221a7085e0
            454b03221a7081e000be00f0baf97de0444b1b68002b24d0434b1a68414b
            1b681946104600f0f1f9b8603d4b1b68ba689a420cd23b4b1a68bb68d31a
            394a1360394b1a68bb681344374a13605ee0364b9b68354a23f001039360
            2e4b03221a7054e000be00f08df950e02d4b1b68002b1bd12e4b1b68002b
            14d02c4b1b68294898470246274b1a60264b1b68002b0cd1264b9b68254a
            23f0010393601e4b03221a7002e000be00f06cf91d4b1b68002b09d11d4b
            9b681c4a23f001039360154b03221a7022e0174b1a68154b1b6819461046
            00f09af97860124b1a687b68d31a104a1360104b1a687b6813440e4a1360
            0ce00d4b9b680c4a23f001039360002000f01ff9044b00221a7000bf00bf
            1037bd4680bd00bf8d040020700400206c04002078040020740400200060
            01408804002080b584b000af7c4b1b69fb81fb8923f4ff4323f07f03bb81
            fb89fb72774b1b78052b00f2d68001a252f823f0f12c00006b2e00006b2e
            0000492d0000972d00003f2e0000bb89002b00f0ca80fb7af12b06d0fb7a
            bb72bb7a184600f06df9bfe0674b00221a80674b1b68654a128892b21344
            fa7a1a70624b1b889bb201339ab25f4b1a805f4b1b685d4a128892b21344
            00221a70594b04221a70a1e0bb89002b00f0a080fb7a7b72574b1b78dbb2
            7a7a9a4215d1524b00221a80524b1b68504a128892b213447a7a1a704d4b
            1b889bb201339ab24a4b1a80484b04221a7081e07b7a184600f028f97ce0
            bb89002b06d0fb7a3b723b7a184600f01ef974e0414b1a683f4b1b889bb2
            013b13441b78f12b16d13c4b1b683a4a128892b21344fa7a1a70384b1a68
            364b1b889bb2013b13441b78184600f000f9304b00221a7053e02f4b1b88
            9ab2314b1b889a4210d2fb7afb712c4b1b682a4a128892b21344fa791a70
            274b1b889bb201339ab2244b1a80234b1b889ab2254b1b889a4234d1204b
            1b889bb2184600f043f81c4b00221a702ae0bb89002b0bd11a4b1b680133
            fa7a1a70022000f034f8144b00221a701ee0fb7abb71bb79184600f0bef8
            17e0bb89002b13d0fb7a7b717b79184600f0b4f80ce0002000f01cf8084b
            00221a7006e000bf04e000bf02e000bf00e000bf00bf1037bd4680bd00bf
            006001408d040020820400207c040020690400208004002080b582b000af
            0346fb800a4b1b68002b0cd0084b1b68084a1268f98810469847044b0022
            1a60054b00221a7000bf0837bd4680bd840400207c0400208c04002080b5
            82b000af0e4b1b78dbb2002b13d00c4b1b889bb21846fff7d2ff0a4b1b68
            094a43f001031360074b1b6803f001037b607b68002bf7d100bf0837bd46
            80bd8c040020820400200060014080b485b000af0346fb710b4b1b680a4a
            23f004031360084b5b6803f00103fb60fb68002bf7d0044afb79936100bf
            1437bd4680bc704700bf0060014080b485b000af78603960144b1b68134a
            23f0040313600023fb60104b5b6803f00103bb600de07a68fb6813441a78
            0b4b1a61fb680133fb60084b5b6803f00103bb60bb68002b03d0fa683b68
            9a42ead3fb6818461437bd4680bc70470060014080b582b000af0346fb71
            064b1b68002b04d0044b1b68fa791046984700bf0837bd4680bd90040020
            80b582b000af78600a4a7b6813600a4b00221a80094b00221a70094bd3f8
            9830084a136008490948fff7befb00bf0837bd4680bd9804002096040020
            9404002000800340a00400209c0400205d30000080b586b000af0346fb71
            fb79e02b1dd141f28833fb60304bd3f8983003f480537b61fb68013bfb60
            7b69002b02d1fb68002bf0d1294b1b68002b48d0274b1b68274a5178fa79
            1046984740e0fb79e12b1fd141f28833bb601f4bd3f8983003f480533b61
            bb68013bbb603b69002b02d0bb68002bf0d100f0ebf9184b1b68002b25d0
            164b1b68164a5178fa79104698471de0fb79f12b0fd097f90730002b02da
            fb799f2b08d9fb79a02b05d0fb79b02b0dd9fb79b72b0ad8084b1b68002b
            06d0064b1b68064a5178fa791046984700bf1837bd4680bd00bf00800340
            980400209c04002080b584b000af786007f1080206237968052000f083fb
            0346fb73fb7b18461037bd4680bd80b485b000af03463960fb71fb79062b
            34d801a252f823f099310000a5310000b1310000e1310000bd310000c931
            0000d5310000174bfb603b6804221a7023e0154bfb603b6803221a701de0
            134bfb603b6805221a7017e0114bfb603b6803221a7011e00f4bfb603b68
            02221a700be00d4bfb603b6802221a7005e03b6800221a700023fb6000bf
            fb6818461437bd4680bc704764000020680000206c000020740000207800
            00207c00002080b588b000afa14bd3f898307b600023fb6100237b610023
            fb769c4bd3f84c319bb23b613b694ff60202934213d03b694ff603029342
            0ed03b694ff60402934209d03b694ff60702934204d03b694ff606029342
            0cd18d4bd3f898308c4a1a408a498c4b1343c1f898300023fb7607e13b69
            4ff60502934240f0c7807b689b0803f00703844a1360834b1b68dbb207f1
            0b0211461846fff75dfff8600123fb6116e07a4bd3f898307b617b6923f0
            1c037b61fa68fb6913441b789b007a6913437b61724a7b69c2f89830fb69
            0133fb61fb7a1a46fb699342e3d37b685b0903f007036d4a53606c4b5b68
            dbb207f10b0211461846fff72efff8600123fb6116e0624bd3f898307b61
            7b6923f0e0037b61fa68fb6913441b785b017a6913437b615a4a7b69c2f8
            9830fb690133fb61fb7a1a46fb699342e3d37b685b0a03f00703554a9360
            544b9b68dbb207f10b0211461846fff7fffef8600123fb6116e04b4bd3f8
            98307b617b6923f460637b61fa68fb6913441b785b027a6913437b61434a
            7b69c2f89830fb690133fb61fb7a1a46fb699342e3d37b68db0c03f00703
            3e4ad3603d4bdb68dbb207f10b0211461846fff7d0fef8600123fb6116e0
            334bd3f898307b617b6923f460137b61fa68fb6913441b78db047a691343
            7b612b4a7b69c2f89830fb690133fb61fb7a1a46fb699342e3d3254bd3f8
            9830244a43f48053c2f898300023fb763ae03b694ff60802934235d17b68
            9b0803f007031e4a13607b685b0903f007031b4a53607b685b0a03f00703
            184a93607b68db0c03f00703154ad3600123fb6117e0134afb6952f82320
            114b1b689a4209d10f4b1b68052b05d80d4afb6952f82330052b02d90123
            fb7605e0fb690133fb61fb69032be4d9fb7e18462037bd4680bd00bf0080
            034003e1c7ffd81c3000a404002080b586b000af0023fb7500233b61694b
            d3f84c319bb2fb60fb684ff60202934213d0fb684ff6030293420ed0fb68
            4ff60402934209d0fb684ff60702934204d0fb684ff60602934205d15a4a
            5a4b1b68c2f89830a9e0fb684ff60502934240f0a480564b1b68dbb2fa1d
            11461846fff723feb860fb79fb7517e04e4bd3f898303b613b6923f01c03
            3b61fb7d013bba6813441b789b003a6913433b61454a3b69c2f89830fb7d
            013bfb75fb7d002be4d1424b5b68dbb2fa1d11461846fff7fcfdb860fb79
            fb7517e03a4bd3f898303b613b6923f0e0033b61fb7d013bba6813441b78
            5b013a6913433b61324a3b69c2f89830fb7d013bfb75fb7d002be4d12f4b
            9b68dbb2fa1d11461846fff7d5fdb860fb79fb7517e0274bd3f898303b61
            3b6923f460633b61fb7d013bba6813441b785b023a6913433b611e4a3b69
            c2f89830fb7d013bfb75fb7d002be4d11b4bdb68dbb2fa1d11461846fff7
            aefdb860fb79fb7517e0134bd3f898303b613b6923f460133b61fb7d013b
            ba6813441b78db043a6913433b610b4a3b69c2f89830fb7d013bfb75fb7d
            002be4d1064bd3f89830044a23f48053c2f8983000bf1837bd4680bd00bf
            00800340a0040020a404002080b58ab004af03463960fb710023fb750023
            bb75fb79022b02d1012000f080f8fb79002b2ad03a4bdb683a4a1360384b
            d3f89c30384a1360364b1b68344a43f4ff53d360324bd3f89c30314a23f4
            e073c2f89c302e4bd3f89c302d4a43f40073c2f89c302a4bd3f89c30294a
            43f48063c2f89c30fff796fd0346bb75bb7d002b3ed114233b73fb797b73
            3b68dbb2bb733b681b0adbb2fb733b681b0cdbb23b743b681b0edbb27b74
            00f0e8f807f10c001a4b02930223019307f108030093002300220621fff7
            2af900f0eef80346bb82bb8a022b05d13b7a142b02d17b7afb7501e0c823
            fb75fb79002b0bd0084a094b1b68d360064a084b1b68c2f89c3001e0c923
            fb75fb7d18461837bd4680bd00bf0080034080000020b4040020bd380000
            80b58ab004af0346fb710023bb752c4bd3f84c314ff60202934200d100be
            284bd3f84c31274a934200d100be244bd3f84c31254a934200d100befb79
            03f03003002b06d01e4bd3f84c311f4a934200d100befb7903f00103002b
            03d0fff712fd0346bb75bb7d002b23d100f077f817233b74fb797b7407f1
            1000144b02930223019307f10c030093002300220221fff7b5f800f079f8
            0346bb82bb8a022b05d13b7b172b02d17b7bfb7504e0c823fb7501e0c923
            fb75fb7d18461837bd4680bd0080034002f8010002f80200bd38000080b5
            88b002afb9607a601a460346fb731346bb8100f03af8b968ba89f87b0f4b
            009313467a68fff703f800f045f80346bb82ba89bb8a9a4208d17b681b78
            fa7b9a4203d17b685b78fb7501e0c823fb75fb7d18461837bd4680bd00bf
            bd38000080b483b000af78600b467b80054b00221a70054a7b88138000bf
            0c37bd4680bc704700bf940400209604002080b400af00bf074b1b78dbb2
            002bfad1044b01221a70044b00221a8000bfbd4680bc7047940400209604
            002080b400af00bf064b1b78dbb2002bfad1044b1b889bb21846bd4680bc
            704700bf940400209604002080b483b000af0346fb71fb7903f01f020649
            97f907305b09012000fa02f241f8232000bf0c37bd4680bc704700e100e0
            80b483b000af0346fb71fb7903f01f02074997f907305b09012000fa02f2
            203341f8232000bf0c37bd4680bc704700bf00e100e080b483b000af0346
            fb71fb7903f01f02074997f907305b09012000fa02f2603341f8232000bf
            0c37bd4680bc704700bf00e100e080b584b000af78607b68314a934204d0
            7b68304a934200d000be7b6893f904301846fff7b9ff84220021786804f0
            6ef97b6801225a620023fb810ae0fb897a680633db0013444ff0ff325a60
            fb890133fb81fb89072bf1d97b681d4a934215d17b681d4a1a607b680222
            1a711b4b9b6c1a4a43f4007393640220fff7a7ff174b9b6c164a23f40073
            936414e07b68144a1a607b6803221a71104b9b6c0f4a43f4806393640320
            fff791ff0c4b9b6c0b4a23f4806393647b681b681a687b681b6822f00042
            1a6000bf1037bd4680bd00bf3ca40020b8a3002000100040008003400010
            014080b58ab000af78607b681b681b687b627b681b689b693b627b681b68
            5b68fb617b681b689b6abb617b681b681b6b7b617b681b685b6b3b617b68
            1b68db69fb607b68354a93421dd17b68344a1a607b6802221a71324b9b6c
            314a43f4007393640220fff741ff2e4b9b6c2d4a23f4007393647b681b68
            1a687b681b6822f000421a601ce07b68274a1a607b6803221a71234b9b6c
            224a43f4806393640320fff723ff1f4b9b6c1e4a23f4806393647b681b68
            1a687b681b6822f000421a607b6a23f001037b627b681b687a6a1a607b68
            1b683a6a9a617b681b68fa695a607b681b681a687b681b6842f001021a60
            7b681b68ba699a627b681b687a691a637b681b683a695a637b681b68fa68
            da6100bf2837bd4680bd00bf3ca4002000100040008003400010014080b5
            86b000aff8607a603b600b46fb72fb68454a934204d0fb68444a934200d0
            00befb7a072b00d900be97f82030202b00d900be3b68012b00d800be3b68
            b3f5007f00d900be3b6803f00103002b00d000befb6893f904301846fff7
            97fefb68002283f88020fb681b681a68fb681b6822f001021a60fb681b68
            1a68fb681b6842f002021a60fb681b681a68fb681b6842f001021a60fb7a
            072b3ad87b68002b0bd07b68b3f1007f07d07b68b3f1807f03d07b68b3f1
            407f0bd1fb7a7a6842f0505242f48172f9680633db000b445a600ae0fb7a
            7a6842f0405242f48172f9680633db000b445a60fb7afa680633db001344
            97f820201a723b685b08013b7b61fb7a7a69d1b2fa680633db0013440a46
            5a72fb6893f904301846fff71ffe00bf1837bd4680bd00bf3ca40020b8a3
            002080b584b000af78600b46fb707b68354a934204d07b68344a934200d0
            00be7b681b681b6803f00203022b00d000befb787a680633db0013445b68
            b3f1ff3f00d100be7b6893f904301846fff707fe7b681b689b6803f00403
            fb60fb68002b02d07868fff7a1fe7b681b681a687b681b6822f001021a60
            fb787a68126879680633db000b445b681360fb787a680633db0013445a7a
            7b681b689a61fb787a680633db0013441a7a7b681b685a607b681b681a68
            7b681b6842f001021a607b681b68d969fb7801229a407b681b680a43da61
            7b6893f904301846fff7a8fd00bf1037bd4680bd3ca40020b8a3002080b5
            84b000af78600b46fb707b681c4a934204d07b681b4a934200d000be7b68
            1b681b6803f00203022b00d000be7b6893f904301846fff79bfd7b681b68
            9b6803f00403fb60fb68002b02d07868fff735fe7b681b68d969fb780122
            02fa03f3da437b681b680a40da617b6893f904301846fff765fd00bf1037
            bd4680bd00bf3ca40020b8a3002080b58eb000aff860b9603b601346fb80
            0023fb8600237b85fb68744a934204d0fb68734a934200d000befb681b68
            1b6803f00203022b00d000befa88b7f8403013447b847b8c002b02d10123
            fb6201e07b8cfb62fb681b68da6afb681b6842f00c02da62fb681b689b68
            03f00403fb61fb69002b02d0f868fff7dcfdfb681b681a68fb681b6822f0
            01021a60fb681b681b6823f47f0222f47f42fb6a1b0223f07f4323f0ff03
            f968096813430b60fb681b6808225a60fb681b681a68fb681b6842f00102
            1a60fb681b689b6803f040037b6209e0fb681b681b697b61fb681b689b68
            03f040037b627b6a002bf2d00023bb8600237b86ba8efb889a420dd2bb8e
            ba6813441a78fb681b685a61bb8e0133bb867b8d01337b855fe0ba8e7b8c
            9a425bd2fb681b6800225a61bb8e0133bb867b8d01337b8550e0fb681b68
            9b6803f040037b627b6a002b1bd1fb681b681b697b61fa8efb889a420dd3
            7a8eb7f840309a4205d279697b8e3a681344cab21a707b8e01337b86fb8e
            0133fb867b8d013b7b85fb681b689b6803f48073bb61bb69002b22d17b8d
            032b1fd8ba8efb889a420dd2bb8eba6813441a78fb681b685a61bb8e0133
            bb867b8d01337b850de0ba8e7b8c9a4209d2fb681b6800225a61bb8e0133
            bb867b8d01337b85fa8e7b8c9a42aad300bf3837bd4680bd00bf3ca40020
            b8a3002080b485b000af78600023fb600de07b689a687b681b6913441a78
            7b681b685a617b681b695a1c7b681a617b681b689b6803f48073002b05d1
            7b681a697b68db689a42e4d37b681a697b68db689a421bd30de07b685a69
            7b68db6913441a787b681b685a617b68db695a1c7b68da617b681b689b68
            03f48073002b05d17b68da697b689b699a42e4d37b685b6a002b1dd07b68
            1a697b68db689a4217d37b68da697b689b699a4211d306e07b681b680022
            5a61fb680133fb607b681b689b6803f48073002b02d1fb681f2beed900bf
            1437bd4680bc704780b584b000af78607b6893f88030022b15d10ce07b68
            1b681b69fb607b685b6f002b04d07b685b6ffa68104698477b681b689b68
            03f04003002bebd02fe07b6893f88030012b23d116e07b681b681b69fb60
            7b681a6b7b68db6a9a4207d2f9687b689a6a7b681b6b1344cab21a707b68
            1b6b5a1c7b681a637b681b689b6803f04003002be1d00ae07b681b681b69
            fb607b681b689b6803f04003002bf4d000bf1037bd4680bd80b586b000af
            78607b681b6820337b617b68984a934204d07b68974a934200d000be7b69
            1b6803f00203002b4ed07b6893f88030022b15d10ce07b681b681b69fb60
            7b685b6f002b04d07b685b6ffa68104698477b681b689b6803f04003002b
            ebd02fe07b6893f88030012b23d116e07b681b681b69fb607b681a6b7b68
            db6a9a4207d2f9687b689a6a7b681b6b1344cab21a707b681b6b5a1c7b68
            1a637b681b689b6803f04003002be1d00ae07b681b681b69fb607b681b68
            9b6803f04003002bf4d07b681b680222da607b691b6803f00103002b11d0
            7b6893f88030022b05d17b681b687a68926f5a6102e07868fff7c8fe7b68
            1b680122da607b691b6803f01003002b20d07868fff726ff7b681b6a002b
            0ad07b681b6a7a68906a7a68126b114698477868fff7acfe7b6801225a62
            7b681b689a6a7b681b6822f010029a627b681b681022da607b691b6803f0
            0403002b0ed07b681b68da6a7b681b6842f00402da627868fff7acfb7b68
            1b680422da607b691b6803f00803002b2dd07b681b68da6a7b681b6842f0
            0802da627b6893f88030022b11d17b681b681b6823f47f0323f47f437a68
            126843f4807313607b681b687a68926f5a610ae07b6893f88030012b05d1
            7b6800221a617868fff758fe7b681b680822da607b691b6803f02003002b
            41d07868fff7b6fe7b681b6b3b617b681b6a002b17d07b6800225a627b68
            00225a617b6800229a617b680022da617b681b681022da607b681b689a6a
            7b681b6842f010029a627b6800221a617b681b68da6a7b681b6842f00c02
            da627868fff71efe7b6800221a637b68db6f002b06d07b68db6f7a68926a
            3969104698477b681b682022da6000bf1837bd4680bd3ca40020b8a30020
            684620f007018d4689b500af0448fff7b9fe00bfbd46bde8894085467047
            00bf3ca40020684620f007018d4689b500af0448fff7a7fe00bfbd46bde8
            89408546704700bfb8a3002080b483b000af0346fb71fb7903f01f020749
            97f907305b09012000fa02f2203341f8232000bf0c37bd4680bc704700bf
            00e100e080b483b000af0346fb71fb7903f01f02074997f907305b090120
            00fa02f2603341f8232000bf0c37bd4680bc704700bf00e100e080b582b0
            00af03463960fb713b68b3f1806f00d300be3b68b3f1806f2ed200f041f8
            184b08221a6000f068f80120fff7cdff00f06bf8144bd3f88830124a43f0
            0103c2f88830fb79012b03d10d4b01225a6002e00b4b00225a600a4b0022
            da60084b00221a61074b00225a61054b00229a6100f02df8034a3b689360
            00bf0837bd4680bd007001400080034080b400af034b01221a6000bfbd46
            80bc704700bf0070014080b483b000af084b02221a60064b1b6803f00103
            7b607b68002bf7d100bf0c37bd4680bc704700bf0070014080b483b000af
            084b10221a60064b1b6803f020037b607b68002bf7d100bf0c37bd4680bc
            704700bf0070014080b500af0120fff749ff00bf80bd000080b483b000af
            074b4ff480721a60054b1b687b607b6801337b6000bf0c37bd4680bc7047
            0070014080b485b000aff860b9607a60fb704d484d4b1a68f97813469b00
            1344db01034403f5e27319604949474b1a6813469b0013449b000b440433
            fa681a604349424b1a6813469b0013449b000b440833ba681a603e493c4b
            1a6813469b0013449b000b440c331b683948374a11681a0c12040b469b00
            0b449b0003440c331a607b68b3f5803f0fd97b68a3f58033304a1361bb68
            03f580332e4ad360fb6803f580332b4a93601ae02949274b1a6813469b00
            13449b000b440c331b687a6892b211462248214a1268194313469b001344
            9b0003440c3319601e4b00221a611b491a4b1a6813469b0013449b000b44
            0c331b681648154a126843f4e00113469b0013449b0003440c3319600e49
            0f4b1a6813469b001344db010b4403f5e07301221a600849094b1a681346
            9b001344db010b4403f5e67300221a6000bf1437bd4680bc704700bf0000
            2842d004002000400140b8040020684620f007018d4689b500af354a364b
            1b6803f52873012142f823103349324b1a6813469b0013449b000b440c33
            1b682e482d4a126823f4e00113469b0013449b0003440c331960274b1b68
            0133264a1360254b1b68042b02d1234b00221a60234b1b69002b17d0224b
            1b68042b03d1204b00221a6004e01e4b1b6801331d4a13601b4b98681a4b
            d968194b1a69184b1b7dfff70bff1ee01449134b1a6813469b0013449b00
            0b440c331b6803f4e003002b10d10c4b00221a600e4b00221a600b4b0122
            1a700a4b5b68002b03d0084b5b680120984700bfbd46bde8894085467047
            00bf00002842d404002000400140b8040020d0040020684620f007018d46
            81b583b000af384b1b683b603b6803f470633b603b68002b2fd03449344b
            1a6813469b001344db010b4403f502731b68002b0ad02f4b02221a702e4b
            5b68002b03d02c4b5b68022098472849284b1a6813469b001344db010b44
            03f503731b68002b0ad0234b03221a70224b5b68002b03d0204b5b680320
            98471b4b1b683b603b6803f470433b603b68002b0ad0194b04221a70174b
            5b68002b03d0154b5b680420984700237b6014e010497a6813469b001344
            db010b4403f5e47301221a600a4a7b6803f52873012142f823107b680133
            7b607b68032be7d900bf0c37bd46bde88140854670470040014000002842
            d4040020b804002080b485b000af03463960fb71fb79fb60fb681f2b00d9
            00befb681f2b05d8054afb6852f823303a681a6000bf1437bd4680bc7047
            0487000080b485b000af03460a46fb711346bb71fb79fb60fb681f2b00d9
            00befb681f2b18d80f4bd3f88830bb600122fb6802fa03f3db43ba681340
            bb60bb7903f00102fb6802fa03f3ba681343bb60044abb68c2f8883000bf
            1437bd4680bc704700bf0030014080b483b000af78607b68db68c3f30053
            dbb2002b04d07b681b68c3f3dc0304e07b681b68c3f3dc039b1418460c37
            bd4680bc704780b483b000af786039607b681b683a681a6000bf0c37bd46
            80bc704780b483b000af78607b681b681b6818460c37bd4680bc704780b4
            85b000af786039600023fb737b681b79002b01d1072350e07b681b79c3f1
            2003bb7346e07b681a68bb7b11335b0113441b68c3f30003dbb2002b37d0
            7b681a68bb7b11335b0113445b68c3f3dc013a68136861f3df0313607b68
            1a68bb7b5b01134403f50b731a683b689a607b681a68bb7b5b01134403f5
            0a731a683b685a607b681a68bb7b11335b0113441a683b68da607b681a68
            bb7b11335b011a44136843f0010313600123fb7305e0bb7b0133bb73bb7b
            1f2bb5d9fb7b18461437bd4680bc704780b584b000aff860b9601346fb80
            fb68002b00d100bebb68002b00d100befb88202b00d900befb88002b00d1
            00befb68002b42d0bb68002b3fd048220021f86803f099f8fb68ba681a60
            fb88202b07d8fb88002b04d0fb68fa88a3f8442003e0fb680122a3f84420
            fb681868002301220021fdf762f8fb681b68243300211846fdf757f8fb68
            1b681c3303211846fdf750f8fb681b680433ff211846fdf749f8fb681b68
            183300211846fdf742f8fb681b6803211846fdf73cf800bf1037bd4680bd
            80b582b000af78607b68002b00d100be7b68002b25d07b68186800230122
            0021fdf72af87b68002283f846207b681b681c3303211846fdf71bf87b68
            1b680433ff211846fdf714f87b681b68183300211846fdf70df87b681b68
            03211846fdf707f800bf0837bd4680bd80b584b000af78600b46fb700023
            fb737b68002b00d100befb78072b00d900be7b68002b31d0fb78072b2ed8
            7b681b68022201211846fcf7f8ff0346002b24d07b681b68203310220421
            1846fcf7edff0346012b02d1786800f014fa7b681b6824331846fcf7d1ff
            03461946fb78012202fa03f3dbb20b43fb737b681b682433fa7b11461846
            fcf7beff00bf1037bd4680bd80b584b000af78600b46fb700023fb737b68
            002b00d100befb78072b00d900be7b68002b33d0fb78072b30d87b681b68
            022201211846fcf7afff0346002b26d07b681b682033102204211846fcf7
            a4ff0346012b02d1786800f0cbf97b681b6824331846fcf788ff03461946
            fb78012202fa03f3dbb2db43dbb20b40fb737b681b682433fa7b11461846
            fcf773ff00bf1037bd4680bd80b588b000aff860b9603b601346fb800023
            7b610023fb830023bb8300237b8300233b83fb68002b00d100befb68002b
            00f09081fb681b68022201211846fcf760ff0346002b00f08581fa883b8d
            1344002b00f07f81fa883b8d1344013b7b61fb681b681c3303211846fcf7
            38fffb681b682033102204211846fcf742ff0346012b02d1f86800f069f9
            fb681868002301220021fcf727ff1ce0ba8bfb889a420bd2fb681b6803f1
            0c00bb8bba6813441b781946fcf7e3fe06e0fb681b680c3300211846fcf7
            dbfe3b8b01333b83bb8b0133bb83bb8b7a699a4205d9fb68b3f84430ba8b
            9a42d8d3bb8b7a699a4222d1fb68b3f84430ba8b9a421cd2ba8bfb889a42
            0bd2fb681b6803f12800bb8bba6813441b781946fcf7b2fe06e0fb681b68
            283300211846fcf7aafe3b8b01333b83bb8b0133bb83fb68186801230122
            0021fcf7d1fe3de0fb68b3f844303a8b9a4220d2bb8b7a699a420bd1fb68
            1b6803f12800bb8bba6813441b781946fcf787fe0ae0fb681b6803f10c00
            bb8bba6813441b781946fcf77bfebb8b0133bb833b8b01333b83fb681b68
            2033042202211846fcf7affe0346002b0bd1fb681b6808331846fcf766fe
            fb8b0133fb833b8b013b3b83ba8bfb889a42bdd32de0fb68b3f844303a8b
            9a4210d2bb8b7a699a420cd9fb681b680c3300211846fcf748febb8b0133
            bb833b8b01333b83fb681b682033042202211846fcf77cfe0346002b0bd1
            fb681b6808331846fcf733fefb8b0133fb833b8b013b3b83fa8bfb889a42
            cdd332e0fb68b3f844303a8b9a420cd2fb681b680c3300211846fcf719fe
            bb8b0133bb833b8b01333b83fb681b682033042202211846fcf74dfe0346
            002b14d1fb681b6808331846fcf704fe01467b8b3a681344cab21a707b8b
            01337b83fb8b0133fb833b8b013b3b83bb8b7a699a42c8d832e0fb68b3f8
            44303a8b9a420cd2fb681b68283300211846fcf7e1fdbb8b0133bb833b8b
            01333b83fb681b682033042202211846fcf715fe0346002b14d1fb681b68
            08331846fcf7ccfd01467b8b3a681344cab21a707b8b01337b83fb8b0133
            fb833b8b013b3b83bb8b7a699a42c8d01ce0fb681b682033042202211846
            fcf7f0fd0346002b11d1fb681b6808331846fcf7a7fd01467b8b3a681344
            cab21a707b8b01337b83fb8b0133fb83fb8b7a699a42ded200bf2037bd46
            80bd80b582b000af78607b681868002301220021fcf7bafd7b681b681c33
            03211846fcf7affd7b681b680433ff211846fcf7a8fd7b68186801230122
            0021fcf7a5fd00bf0837bd4680bd80b483b000af7860fee780b485b000af
            f860b9607a603b60002318461437bd4680bc7047000080b586b000af7860
            1f4b1b68002b02d11d4b1e4a1a601c4b1b687b61eff308833b61194b1b68
            3a699a420fd9164b1a687b6813443a699a421ad21923144a01210020fff7
            cfff0120fff7c7ff114bfb600d4b1a687b681344fa689a4208d219230d4a
            01210020fff7bdff0120fff7b5ff054b1a687b681344034a13607b691846
            1837bd4680bd00bfd8040020d0a400208487000000f00020a087000080b5
            00af00f0faf8044b5b69034a43f400735361fbf7fcf800bf80bd00ed00e0
            80b588b000af304bd3f8983003f08063fb61fb69002b4cd12b4bd3f89830
            03f48053bb61bb69002b15d1284b284a1a60284b294a1a60294b294a1a60
            294b284a1a60294b224a1a60284b214a1a60284b1f4a1a6034e0274a3b1d
            92e8030083e80300194bd3f89c309b0903f007037b613a1d7b6913441b78
            fb74fb7c012b0ad0022b0dd0002b0fd100f038f8f860f86800f052f814e0
            4ff4004000f04df80fe0154800f049f80be0134800f045f800bf06e000f0
            23f8f860f86800f03df8ffe700bf2037bd4680bd00800340840000200020
            a107880000200090d0038c0000200048e801900000209400002098000020
            9c000020b487000040420f0080b483b000af0a4bd3f8503103f004033b60
            3b68002b02d1064b7b6001e0064b7b607b6818460c37bd4680bc704700bf
            0080034040787d0180f0fa0280b483b000af78600c4a7b6813600c4a7b68
            13600b4a7b6813600b4b0b4a1a600b4a7b6813600b4a7b6813600a4a7b68
            136000bf0c37bd4680bc704784000020880000208c000020900000200048
            e80194000020980000209c00002080b483b000af0e4bd3f84c313b603b68
            4ff60202934204d03b680a4a934203d005e001237b6005e002237b6002e0
            00237b6000bf7b6818460c37bd4680bc70470080034002f8010080b582b0
            00affff7d7ff78607b68012b02d100f007f800e000bf00bf0837bd4680bd
            000080b400af094bd3f89830084a43f48073c2f89830054bd3f89830044a
            23f08063c2f8983000bfbd4680bc70470080034080b58ab000af78600023
            fb6101f0dafa594b1b68002b01d100f01af9574b1a687b681340002b40f0
            8c807b68002b1cd008227b6813447b607b6803f00703002b13d07b6823f0
            070308337b607b6803f00703002b09d04ff0a00383f31188bff36f8fbff3
            4f8f7b61fee77b68002b68d0434b1b687a689a4263d8424b3b62414b1b68
            7b6204e07b6a3b627b6a1b687b627b6a5b687a689a4203d97b6a1b68002b
            f1d1354b1b687a6a9a424ad03b6a1b6808221344fb617b6a1a683b6a1a60
            7b6a5a687b68d21a08235b009a421ed97a6a7b681344bb61bb6903f00703
            002b09d04ff0a00383f31188bff36f8fbff34f8f3b61fee77b6a5a687b68
            d21abb695a607b6a7a685a60b86900f004f91c4b1a687b6a5b68d31a1a4a
            1360194b1a681a4b1b689a4203d2164b1b68174a13607b6a5a68124b1b68
            1a437b6a5a607b6a00221a6001f04dfafb69002b01d1fcf71afbfb6903f0
            0703002b09d04ff0a00383f31188bff36f8fbff34f8ffb60fee7fb691846
            2837bd4680bd24a1002030a1002028a100201ca100202ca1002080b586b0
            00af78607b687b617b68002b46d008235b427a6913447b617b693b613b69
            5a68204b1b681340002b09d14ff0a00383f31188bff36f8fbff34f8ffb60
            fee73b691b68002b09d04ff0a00383f31188bff36f8fbff34f8fbb60fee7
            3b695a68114b1b681340002b19d03b691b68002b15d13b695a680b4b1b68
            db431a403b695a6001f0d8f93b695a68074b1b681344064a1360386900f0
            76f801f0daf900bf1837bd4680bd30a1002028a1002080b400af024b1b68
            1846bd4680bc704728a1002080b485b000af49f64043bb60274bfb60fb68
            03f00703002b0cd0fb680733fb60fb6823f00703fb60ba68fb68d31a1f4a
            1344bb60fb687b601d4a7b6813601c4b00225a607b68ba681344fb600822
            fb689b1afb60fb6823f00703fb60fb68154a1360144b1b6800225a60124b
            1b6800221a607b683b603b68fa68d21a3b685a600c4b1a683b681a603b68
            5b680a4a13603b685b68094a1360094b4ff000421a6000bf1437bd4680bc
            704700bfdc0400201ca1002024a100202ca1002028a1002030a1002080b4
            85b000af7860274bfb6002e0fb681b68fb60fb681b687a689a42f7d8fb68
            bb60fb685b68ba6813447a689a4208d1fb685a687b685b681a44fb685a60
            fb687b607b68bb607b685b68ba681a44fb681b689a4218d1fb681a68144b
            1b689a420dd07b685a68fb681b685b681a447b685a60fb681b681a687b68
            1a6008e00b4b1a687b681a6003e0fb681a687b681a60fa687b689a4202d0
            fb687a681a6000bf1437bd4680bc70471ca1002024a1002080b485b000af
            f860b9607a60fb68043bfb60fb684ff080721a60fb68043bfb60bb6823f0
            0102fb681a60fb68043bfb60084afb681a60fb68143bfb607a68fb681a60
            fb68203bfb60fb6818461437bd4680bc70479158000080b483b000af0c4b
            1b68b3f1ff3f09d04ff0a00383f31188bff36f8fbff34f8f7b60fee74ff0
            a00383f31188bff36f8fbff34f8f3b60fee7a000002000000000074b1968
            0868b0e8f00f80f30988bff36f8f4ff0000080f311884ef00d0e70473ca1
            002000bf00bf06480068006880f3088862b661b6bff34f8fbff36f8f00df
            00bf00bf08ed00e080b584b000af284bfb60fb681b78dbb2bb60fb68ff22
            1a70fb681b78dbb2fb71fb79dbb223f05f03dab2204b1a70204b07221a60
            09e01e4b1b68013b1c4a1360fb79dbb25b00dbb2fb71fb79dbb203f08003
            802befd0164b1b681b02144a1360134b1b6803f4e063114a1360bb68dab2
            fb681a700f4b1b680e4a43f4700313600c4b1b680b4a43f07043136000f0
            b0f8094b00221a60fff7a3fffff76dff002318461037bd4680bd00e400e0
            34a1002038a1002020ed00e0a000002080b483b000af4ff0a00383f31188
            bff36f8fbff34f8f7b600e4b1b6801330d4a13600c4b1b68012b0ed10b4b
            1b68dbb2002b09d04ff0a00383f31188bff36f8fbff34f8f3b60fee700bf
            0c37bd4680bc704700bfa000002004ed00e080b483b000af104b1b68002b
            09d14ff0a00383f31188bff36f8fbff34f8f7b60fee7094b1b68013b074a
            1360064b1b68002b04d100233b603b6883f3118800bf0c37bd4680bc7047
            a000002000000000eff30980bff36f8f0d4b1a6820e9f00f10602de90840
            4ff0a00080f3118801f03ff94ff0000080f31188bde8084019680868b0e8
            f00f80f30988bff36f8f70473ca1002000bf00bf80b582b000af4ff0a003
            83f31188bff36f8fbff34f8f7b6001f062f80346002b03d0064b4ff08052
            1a6000233b603b6883f3118800bf0837bd4680bd04ed00e080b400af074b
            1b68074aa2fb03239b09064a013b1360064b07221a6000bfbd4680bc7047
            84000020d34d621014e000e010e000e080b485b000afeff30583fb60fb68
            0f2b13d9154afb6813441b78fb72134b1b78fa7a9a4209d24ff0a00383f3
            1188bff36f8fbff34f8f7b60fee70d4b1b6803f4e0620c4b1b689a4209d9
            4ff0a00383f31188bff36f8fbff34f8f3b60fee700bf1437bd4680bc7047
            f0e300e034a100200ced00e038a1002080b483b000af78607b6803f10802
            7b685a607b684ff0ff329a607b6803f108027b68da607b6803f108027b68
            1a617b6800221a6000bf0c37bd4680bc704780b483b000af78607b680022
            1a6100bf0c37bd4680bc704780b485b000af786039607b685b68fb603b68
            fa685a60fb689a683b689a60fb689b683a685a60fb683a689a603b687a68
            1a617b681b685a1c7b681a6000bf1437bd4680bc704780b485b000af7860
            39603b681b68bb60bb68b3f1ff3f03d17b681b69fb600ce07b680833fb60
            02e0fb685b68fb60fb685b681b68ba689a42f6d2fb685a683b685a603b68
            5b683a689a603b68fa689a60fb683a685a603b687a681a617b681b685a1c
            7b681a6000bf1437bd4680bc704780b485b000af78607b681b69fb607b68
            5b687a6892689a607b689b687a6852685a60fb685b687a689a4203d17b68
            9a68fb685a607b6800221a61fb681b685a1efb681a60fb681b6818461437
            bd4680bc7047000080b584b000af786039607b68fb60fb68002b09d14ff0
            a00383f31188bff36f8fbff34f8fbb60fee7fff74afefb681a68fb68db6b
            f968096c01fb03f31a44fb685a60fb6800229a63fb681a68fb689a60fb68
            1a68fb68db6b013bf968096c01fb03f31a44fb68da60fb68ff2283f84420
            fb68ff2283f845203b68002b14d1fb681b69002b1ad0fb681033184601f0
            8cf80346002b12d00d4b4ff080521a60bff34f8fbff36f8f09e0fb681033
            1846fff7f7fefb6824331846fff7f2fefff72efe012318461037bd4680bd
            00bf04ed00e080b58ab002aff860b9601346fb71fb68002b09d14ff0a003
            83f31188bff36f8fbff34f8f3b61fee7bb68002b02d10023fb6104e0fb68
            ba6802fb03f3fb61fb6950331846fff724fbb861bb69002b0bd0bb695033
            7b61fa79bb69009313467a69b968f86800f005f8bb6918462037bd4680bd
            80b584b000aff860b9607a60fb70bb68002b03d1bb69ba691a6002e0bb69
            7a681a60bb69fa68da63bb69ba681a640121b869fff744ffbb69fa7883f8
            4c2000bf1037bd4680bd80b582b000af78607b68002b0ed07b6800225a60
            7b6800221a607b680022da60002300220021786800f01cf800bf0837bd46
            80bd80b586b000af0346fb7101237b6100233b61fb791a4639697869fff7
            7bfff860f868fff7d3fffb6818461837bd4680bd80b58eb000aff860b960
            7a603b6000237b63fb683b633b6b002b09d14ff0a00383f31188bff36f8f
            bff34f8fbb62fee7bb68002b03d13b6b1b6c002b01d1012300e00023002b
            09d14ff0a00383f31188bff36f8fbff34f8f7b62fee73b68022b03d13b6b
            db6b012b01d1012300e00023002b09d14ff0a00383f31188bff36f8fbff3
            4f8f3b62fee701f050f90346002b02d17b68002b01d1012300e00023002b
            09d14ff0a00383f31188bff36f8fbff34f8ffb61fee7fff70dfd3b6b9a6b
            3b6bdb6b9a4202d33b68022b29d13a68b968386b00f035faf8623b6b5b6a
            002b10d03b6b2433184600f069ff0346002b13d03f4b4ff080521a60bff3
            4f8fbff36f8f0ae0fb6a002b07d0394b4ff080521a60bff34f8fbff36f8f
            fff70afd012363e07b68002b03d1fff703fd00235ce07b6b002b06d107f1
            1403184600f0a1ff01237b63fff7f5fc00f0f7fcfff7c3fc3b6b93f84430
            5bb2b3f1ff3f03d13b6b002283f844203b6b93f845305bb2b3f1ff3f03d1
            3b6b002283f84520fff7d9fc3a1d07f114031146184600f09cff0346002b
            24d1386b00f0ccfa0346002b18d03b6b10337a681146184600f0bafe386b
            00f057fa00f0cffc0346002b7ff47caf0c4b4ff080521a60bff34f8fbff3
            6f8f72e7386b00f045fa00f0bdfc6ce7386b00f03ffa00f0b7fc00231846
            3837bd4680bd04ed00e080b58eb000aff860b9607a603b60fb683b633b6b
            002b09d14ff0a00383f31188bff36f8fbff34f8f7b62fee7bb68002b03d1
            3b6b1b6c002b01d1012300e00023002b09d14ff0a00383f31188bff36f8f
            bff34f8f3b62fee73b68022b03d13b6bdb6b012b01d1012300e00023002b
            09d14ff0a00383f31188bff36f8fbff34f8ffb61fee7fff7e0fceff31182
            4ff0a00383f31188bff36f8fbff34f8fba617b61bb69fb623b6b9a6b3b6b
            db6b9a4202d33b68022b2cd13b6b93f8453087f82b303a68b968386b00f0
            41f997f92b30b3f1ff3f12d13b6b5b6a002b16d03b6b2433184600f071fe
            0346002b0ed07b68002b0bd07b6801221a6007e097f82b300133dbb25ab2
            3b6b83f8452001237b6301e000237b63fb6a3b613b6983f311887b6b1846
            3837bd4680bd80b58eb000aff860b9607a603b6000237b63fb683b633b6b
            002b09d14ff0a00383f31188bff36f8fbff34f8f7b62fee7bb68002b03d1
            3b6b1b6c002b01d1012300e00023002b09d14ff0a00383f31188bff36f8f
            bff34f8f3b62fee700f0d8ff0346002b02d17b68002b01d1012300e00023
            002b09d14ff0a00383f31188bff36f8fbff34f8ffb61fee7fff795fb3b6b
            9b6bfb62fb6a002b46d03b6bdb68bb62b968386b00f028f93b68002b21d1
            fb6a5a1e3b6b9a633b6b1b68002b04d101f0bff802463b6b5a603b6b1b69
            002b27d03b6b1033184600f0e3fd0346002b1fd04f4b4ff080521a60bff3
            4f8fbff36f8f16e03b6bba6ada603b6b5b6a002b0fd03b6b2433184600f0
            cbfd0346002b07d0434b4ff080521a60bff34f8fbff36f8ffff778fb0123
            77e07b68002b03d1fff771fb002370e07b6b002b06d107f11403184600f0
            0ffe01237b63fff763fb00f065fbfff731fb3b6b93f844305bb2b3f1ff3f
            03d13b6b002283f844203b6b93f845305bb2b3f1ff3f03d13b6b002283f8
            4520fff747fb3a1d07f114031146184600f00afe0346002b31d1386b00f0
            24f90346002b25d03b6b1b68002b08d1fff703fb3b6b5b68184600f048ff
            fff72afb3b6b24337a681146184600f01bfd386b00f0b8f800f030fb0346
            002b7ff455af0f4b4ff080521a60bff34f8fbff36f8f4be7386b00f0a6f8
            00f01efb45e7386b00f0a0f800f018fb386b00f0edf80346002b3ff43aaf
            002318463837bd4680bd04ed00e080b586b000aff860b9607a6000237b61
            fb689b6b3b61fb681b6c002b0dd1fb681b68002b4dd1fb685b68184600f0
            72ff7861fb6800225a6043e07b68002b19d1fb689868fb681b6c1a46b968
            01f01afcfb689a68fb681b6c1a44fb689a60fb689a68fb685b689a422bd3
            fb681a68fb689a6026e0fb68d868fb681b6c1a46b96801f000fcfb68da68
            fb681b6c5b421a44fb68da60fb68da68fb681b689a4207d2fb685a68fb68
            1b6c5b421a44fb68da607b68022b05d13b69002b02d03b69013b3b613b69
            5a1cfb689a637b6918461837bd4680bd80b582b000af786039607b681b6c
            002b18d07b68da687b681b6c1a447b68da607b68da687b685b689a4203d3
            7b681a687b68da607b68d9687b681b6c1a46386801f0b6fb00bf0837bd46
            80bd80b584b000af7860fff734fa7b6893f84530fb7311e07b685b6a002b
            12d07b682433184600f09afc0346002b01d000f077fdfb7b013bdbb2fb73
            97f90f30002be9dc00e000bf7b68ff2283f84520fff73ffafff70ffa7b68
            93f84430bb7311e07b681b69002b12d07b681033184600f075fc0346002b
            01d000f052fdbb7b013bdbb2bb7397f90e30002be9dc00e000bf7b68ff22
            83f84420fff71afa00bf1037bd4680bd80b584b000af7860fff7e2f97b68
            9b6b002b02d10123fb6001e00023fb60fff705fafb6818461037bd4680bd
            80b584b000af7860fff7ccf97b689a6b7b68db6b9a4202d10123fb6001e0
            0023fb60fff7edf9fb6818461037bd4680bd80b586b000aff860b9607a60
            fb687b61fff7b0f97b6993f844305bb2b3f1ff3f03d17b69002283f84420
            7b6993f845305bb2b3f1ff3f03d17b69002283f84520fff7c6f97b699b6b
            002b06d17b6924337a68b968184600f0d7fb7869fff750ff00bf1837bd46
            80bd80b58cb004aff860b9603b601346fb80fb889b001846fef7c9fe7861
            7b69002b0ed05820fef7c2fef861fb69002b03d0fb697a691a6305e07869
            fef77dff01e00023fb61fb69002b13d0fa8800230393fb690293fb6a0193
            bb6a00933b68b968f86800f00ef8f86900f094f80123bb6102e04ff0ff33
            bb61bb6918462037bd4680bd80b588b000aff860b9607a603b603b6b186b
            7b689b001a46a52101f0bcfa3b6b1a6b7b6803f18043013b9b001344bb61
            bb6923f00703bb61bb6903f00703002b09d04ff0a00383f31188bff36f8f
            bff34f8f7b61fee70023fb6114e0ba68fb69134493f900103a6bfb691344
            34330a461a70ba68fb69134493f90030002b06d0fb690133fb61fb69092b
            e7d900e000bf3b6b002283f83d20bb6a042b01d90423bb623b6bba6ada62
            3b6bba6a9a643b6b0022da643b6b04331846fff7f5f93b6b18331846fff7
            f0f93b6b3a6b1a61bb6ac3f105023b6b9a613b6b3a6b5a623b6b00221a65
            3b6b002283f854203a68f968b869fef7fcff02463b6b1a60fb6a002b02d0
            fb6a3a6b1a6000bf2037bd4680bd000080b582b000af7860fff7b6f82c4b
            1b6801332b4a13602b4b1b68002b09d1294a7b681360264b1b68012b10d1
            00f020fc0de0254b1b68002b09d1224b1b68da6a7b68db6a9a4202d81e4a
            7b6813601f4b1b6801331d4a13601c4b1a687b681a647b68db6a01229a40
            194b1b681343184a13607b68da6a13469b0013449b00154a1a447b680433
            19461046fff790f9fff7a1f80d4b1b68002b0ed00a4b1b68da6a7b68db6a
            9a4207d20b4b4ff080521a60bff34f8fbff36f8f00bf0837bd4680bd14a2
            00203ca1002020a2002030a200201ca2002040a1002004ed00e080b584b0
            00af78600023fb607b68002b16d0134b1b68002b09d04ff0a00383f31188
            bff36f8fbff34f8fbb60fee700f067f80021786800f061fe00f06ff8f860
            fb68002b07d1074b4ff080521a60bff34f8fbff36f8f00bf1037bd4680bd
            00bf3ca2002004ed00e080b586b002af1e4b019300230093002350221c49
            1c48fff787fef860fb68012b02d100f09dfef860fb68012b15d14ff0a003
            83f31188bff36f8fbff34f8fbb60124b4ff0ff321a60114b01221a60114b
            00221a60fef790ff0de0fb68b3f1ff3f09d14ff0a00383f31188bff36f8f
            bff34f8f7b60fee700bf1037bd4680bd00bf38a20020bc87000099700000
            34a2002020a2002018a2002080b400af044b1b680133034a136000bfbd46
            80bc704700bf3ca2002080b584b000af0023fb600023bb60414b1b68002b
            09d14ff0a00383f31188bff36f8fbff34f8f3b60fee7fef7a9ff394b1b68
            013b374a1360364b1b68002b61d1354b1b68002b5dd02ee0344bdb68db68
            fb60fb6818331846fff708f9fb6804331846fff703f9fb68db6a01229a40
            2c4b1b6813432a4a1360fb68da6a13469b0013449b00274a1a44fb680433
            19461046fff791f8fb68da6a234b1b68db6a9a4202d3224b01221a601c4b
            1b68002bccd1fb68002b01d000f06bfb1d4b1b687b607b68002b10d000f0
            45f80346002b02d0164b01221a607b68013b7b607b68002bf1d1134b0022
            1a60104b1b68002b09d00123bb600f4b4ff080521a60bff34f8fbff36f8f
            fef76affbb6818461037bd4680bd00bf3ca2002014a20020d4a100201ca2
            002040a100203ca1002028a2002024a2002004ed00e080b483b000af044b
            1b687b607b6818460c37bd4680bc704718a2002080b586b000af00237b61
            504b1b68002b40f08c804e4b1b6801333b614c4a3b6913603b69002b1fd1
            4a4b1b681b68002b09d04ff0a00383f31188bff36f8fbff34f8f3b60fee7
            434b1b68fb60424b1b68404a1360404afb681360404b1b6801333e4a1360
            00f0eafa3d4b1b683a699a424dd3384b1b681b68002b01d1012300e00023
            002b04d0364b4ff0ff321a603ee0304b1b68db68db68bb60bb685b687b60
            3a697b689a4203d22d4a7b6813602ee0bb6804331846fff72ff8bb689b6a
            002b04d0bb6818331846fff726f8bb68db6a01229a40234b1b681343224a
            1360bb68da6a13469b0013449b001f4a1a44bb68043319461046fef7b4ff
            bb68da6a1b4b1b68db6a9a42b4d301237b61b1e7174b1b68da6a14491346
            9b0013449b000b441b68012b07d901237b6104e0104b1b6801330f4a1360
            0f4b1b68002b01d001237b617b6918461837bd4680bd3ca2002018a20020
            cca10020d0a100202ca2002034a200201ca2002040a100203ca1002024a2
            002028a2002080b588b000af394b1b68002b03d0384b01221a6065e0364b
            00221a60354b1b681b6bfb614ff0a533bb61fb691b68ba699a4211d1fb69
            04331b68ba699a420bd1fb6908331b68ba699a4205d1fb690c331b68ba69
            9a4208d0264b1a68254b1b68343319461046faf74aff234b1b68fb60fb68
            b3fa83f3fb72fb7ac3f11f037b611e497a6913469b0013449b000b441b68
            002b09d14ff0a00383f31188bff36f8fbff34f8f7b60fee77a6913469b00
            13449b00124a13443b613b695b685a683b695a603b695a683b6908339a42
            04d13b695b685a683b695a603b695b68db68054a136000bf2037bd4680bd
            00bf3ca2002028a200203ca100201ca2002040a1002080b584b000af7860
            39607b68002b09d14ff0a00383f31188bff36f8fbff34f8ffb60fee7074b
            1b68183319467868fef7fffe0121386800f0edfb00bf1037bd4680bd00bf
            3ca1002080b586b000aff860b9607a60fb68002b09d14ff0a00383f31188
            bff36f8fbff34f8f7b61fee70a4b1b6818331946f868fef7b7fe7b68002b
            02d04ff0ff33bb607968b86800f0c2fb00bf1837bd4680bd3ca1002080b5
            86b000af78607b68db68db683b613b69002b09d14ff0a00383f31188bff3
            6f8fbff34f8ffb60fee73b6918331846fef7e8fe1d4b1b68002b1cd13b69
            04331846fef7dffe3b69db6a01229a40184b1b681343164a13603b69da6a
            13469b0013449b00134a1a443b69043319461046fef76dfe05e03b691833
            19460e48fef766fe3b69da6a0d4b1b68db6a9a4205d901237b610a4b0122
            1a6001e000237b617b6918461837bd4680bd00bf3ca200201ca2002040a1
            0020d4a100203ca1002028a2002080b485b000af78607b68002b09d14ff0
            a00383f31188bff36f8fbff34f8ffb60fee7064b1a687b681a60054b1a68
            7b685a6000bf1437bd4680bc70472ca2002018a2002080b586b000af7860
            39607b68002b09d14ff0a00383f31188bff36f8fbff34f8ffb60fee73b68
            002b09d14ff0a00383f31188bff36f8fbff34f8fbb60fee7fef7e7fc1c4b
            1b683b613b681b68b3f1ff3f02d100237b6126e07b681a68164b1b689a42
            07d07b685b683a699a4202d301237b6118e07b685b683a69d21a3b681b68
            9a420ed23b681a687b6859683b69cb1a1a443b681a607868fff790ff0023
            7b6101e001237b61fef7e1fc7b6918461837bd4680bd18a200202ca20020
            80b400af034b01221a6000bfbd4680bc704700bf28a2002080b582b000af
            786000f054f8074b1b68012b07d9064b4ff080521a60bff34f8fbff36f8f
            faf7a9fdeee700bf40a1002004ed00e080b582b000af00237b600ce07a68
            13469b0013449b00124a13441846fef764fd7b6801337b607b68042befd9
            0d48fef75bfd0d48fef758fd0c48fef755fd0c48fef752fd0b48fef74ffd
            0b4b054a1a600a4b054a1a6000bf0837bd4680bd00bf40a10020a4a10020
            b8a10020d4a10020e8a1002000a20020cca10020d0a1002080b582b000af
            28e0fff770fc174b1b68002b0cbf01230023dbb27b60fff774fc7b68002b
            19d1fef72ffc104bdb68db683b603b6804331846fef79cfd0c4b1b68013b
            0b4a13600b4b1b68013b094a1360fef748fc386800f00ff8064b1b68002b
            d2d100bf0837bd4680bd00bfe8a1002014a20020fca1002080b582b000af
            78607b681b6b1846fef715fa7868fef712fa00bf0837bd4680bd80b483b0
            00af0e4b1b681b68002b01d1012300e00023002b04d00a4b4ff0ff321a60
            08e0064b1b68db68db687b607b685b68044a136000bf0c37bd4680bc7047
            cca1002034a2002080b483b000af0b4b1b68002b02d101237b6008e0084b
            1b68002b02d102237b6001e000237b607b6818460c37bd4680bc704700bf
            20a200203ca2002080b584b000af78607b68fb607b68002b62d0fb68da6a
            324b1b68db6a9a425bd2fb689b69002b06db2d4b1b68db6ac3f10502fb68
            9a61fb685969fb68da6a13469b0013449b00274a1344994201d1012300e0
            0023002b3ad0fb6804331846fef7fbfc0346002b15d1fb68da6a1d491346
            9b0013449b000b441b68002b0ad1fb68db6a012202fa03f3da43174b1b68
            1340154a1360124b1b68da6afb68da62fb68db6a01229a40104b1b681343
            0e4a1360fb68da6a13469b0013449b00094a1a44fb68043319461046fef7
            6bfc04e0044b1b68da6afb68da6200bf1037bd4680bd3ca1002040a10020
            1ca2002080b586b000af78607b683b6100237b617b68002b6cd0394b1b68
            3a699a4209d04ff0a00383f31188bff36f8fbff34f8ffb60fee73b69db6c
            002b09d14ff0a00383f31188bff36f8fbff34f8fbb60fee73b69db6c5a1e
            3b69da643b69da6a3b699b6c9a4244d03b69db6c002b40d13b6904331846
            fef77afc0346002b15d13b69da6a1f4913469b0013449b000b441b68002b
            0ad13b69db6a012202fa03f3da43184b1b681340174a13603b699a6c3b69
            da623b69db6ac3f105023b699a613b69db6a01229a400f4b1b6813430d4a
            13603b69da6a13469b0013449b00084a1a443b69043319461046fef7e5fb
            01237b617b6918461837bd4680bd00bf3ca1002040a100201ca2002080b4
            00af074b1b68002b04d0054b1b68da6c0132da64034b1b681846bd4680bc
            704700bf3ca1002080b584b000af78603960fef7a1fa1e4b1b681b6d002b
            13d11b4b1b68012283f854203b68002b0bd00121386800f0c0f8164b4ff0
            80521a60bff34f8fbff36f8ffef7b4fafef784fa0f4b1b681b6dfb60fb68
            002b0cd07b68002b04d00a4b1b6800221a6504e0084b1b68fa68013a1a65
            054b1b68002283f85420fef797fafb6818461037bd4680bd3ca1002004ed
            00e080b58ab000af786039607b68002b09d14ff0a00383f31188bff36f8f
            bff34f8fbb61fee7fef700fb7b687b62eff311824ff0a00383f31188bff3
            6f8fbff34f8f7a613b617b693b627b6a93f85430fb777b6a022283f85420
            7b6a1b6d5a1c7b6a1a65fb7f012b45d17b6a9b6a002b09d04ff0a00383f3
            1188bff36f8fbff34f8ffb60fee7204b1b68002b1cd17b6a04331846fef7
            8bfb7b6adb6a01229a401b4b1b681343194a13607b6ada6a13469b001344
            9b00164a1a447b6a043319461046fef719fb05e07b6a183319461148fef7
            12fb7b6ada6a104b1b68db6a9a4209d93b68002b03d03b6801221a6002e0
            0b4b01221a603b6abb60bb6883f3118800bf2837bd4680bd00bf3ca20020
            1ca2002040a10020d4a100203ca1002028a2002080b584b000af78603960
            294b1b68fb60284b1b6804331846fef738fb0346002b0bd1244b1b68db6a
            012202fa03f3da43214b1b681340204a13607b68b3f1ff3f0ad13b68002b
            07d01a4b1b68043319461a48fef7c0fa26e0fa687b681344bb60144b1b68
            ba685a60ba68fb689a4209d2134b1a680f4b1b68043319461046fef7cdfa
            10e00f4b1a680a4b1b68043319461046fef7c3fa0c4b1b68ba689a4202d2
            094abb68136000bf1037bd4680bd00bf18a200203ca100201ca2002000a2
            0020d0a10020cca1002034a2002080b584b002af00237b6000f08dfa104b
            1b68002b0ad00f4b0193022300930023a0220d490d48fef7cfff78607b68
            002b09d14ff0a00383f31188bff36f8fbff34f8f3b60fee77b6818460837
            bd4680bd70a2002074a20020d48700007978000080b58ab000aff860b960
            7a603b6000237b62fb68002b09d14ff0a00383f31188bff36f8fbff34f8f
            3b62fee7194b1b68002b2ad0bb687b617b68bb61fb68fb61bb68052b18dc
            fff741fd0346022b09d1104b186807f1140100233a6bfef7a0fb786212e0
            0b4b186807f1140100230022fef796fb786208e0064b186807f114010023
            3a68fef786fc78627b6a18462837bd4680bd70a2002080b588b002af7860
            39601c4b1b68db68db687b617b6904331846fef755fa7b69db69012b21d1
            7b699a697b68d1187b683a68786900f0c8f80346002b15d0002300930023
            7a6800217869fff78dff38613b69002b09d14ff0a00383f31188bff36f8f
            bff34f8ffb60fee77b695b6a7869984700bf1837bd4680bd00bf68a20020
            80b584b000af786007f10803184600f057f8f860bb681946f86800f003f8
            00f0d5f8f1e780b584b000af78603960fff7c7f807f10803184600f066f8
            f860bb68002b30d13b68002b0ad17a68fb689a4206d8fff7c3f8f9687868
            fff791ff24e03b68002b08d0134b1b681b68002b0cbf01230023dbb23b60
            0f4b18687a68fb68d31a3a681946fef7affefff7a7f80346002b0ad1094b
            4ff080521a60bff34f8fbff36f8f01e0fff799f800bf1037bd4680bd00bf
            6ca2002070a2002004ed00e080b485b000af78600e4b1b681b68002b0cbf
            01230023dbb21a467b681a607b681b68002b05d1074b1b68db681b68fb60
            01e00023fb60fb6818461437bd4680bc704700bf68a2002080b584b000af
            7860fff700f9f8600b4b1b68fa689a4205d200f0e6f87b6801221a6002e0
            7b6800221a60044afb681360fb6818461037bd4680bd00bf78a2002080b5
            86b000aff860b9607a603b6000237b61fb68ba685a60fb68fa681a61ba68
            7b689a4212d87a683b68d21afb689b699a4202d301237b611be0104b1a68
            fb68043319461046fef723f912e07a683b689a4206d2ba683b689a4202d3
            01237b6107e0074b1a68fb68043319461046fef70ff97b6918461837bd46
            80bd6ca2002068a2002080b58cb002af7ae0bb68002b76db3b697b627b6a
            5b69002b04d07b6a04331846fef72cf93b1d1846fff788ff3862bb68092b
            64d801a252f823f000bfa97a0000a97a0000a97a0000437b0000037b0000
            397b0000a97a0000a97a0000437b0000037b0000fa687b6a9b69d118fb68
            3a6a786afff783ff0346002b40d07b6a5b6a786a98477b6adb69012b38d1
            fa687b6a9b691a440023009300230021786afff73dfef861fb69002b29d1
            4ff0a00383f31188bff36f8fbff34f8fbb61fee7fa687b6a9a617b6a9b69
            002b09d14ff0a00383f31188bff36f8fbff34f8f7b61fee77b6a9a693b6a
            d1183b6a3a6a786afff745ff04e0786afdf761fd00e000bf084b186807f1
            080100230022fef765fb0346002b7ff479af00bf2837bd4680bd00bf70a2
            002080b588b002af44e02b4b1b68db681b687b61294b1b68db68db683b61
            3b6904331846fef799f83b695b6a386998473b69db69012b2dd13b699b69
            7a691344fb60fa687b699a420ed93b69fa685a603b693a691a61184b1a68
            3b69043319461046fef742f815e00023009300237a6900213869fff7c1fd
            b860bb68002b09d14ff0a00383f31188bff36f8fbff34f8f3b60fee7094b
            1b681b68002bb5d1064b1b687b60064b1b68044a1360044a7b68136000bf
            1837bd4680bd68a200206ca2002080b500affdf7d2fe0d4b1b68002b13d1
            0c48fdf7bbff0c48fdf7b8ff0b4b094a1a600b4b084a1a6000220c210520
            fef7c5f80246024b1a60fdf7e6fe00bf80bd70a2002040a2002054a20020
            68a200206ca2002070b500260c4d0d4c641ba410a64209d100f072fe0026
            0a4d0a4c641ba410a64205d170bd55f8043b98470136eee755f8043b9847
            0136f2e78c8900008c8900008c890000908900000a44914200f1ff3300d1
            704710b511f8014b914203f8014ff9d110bd03460244934200d1704703f8
            011bf9e738b50546002943d051f8043c0c1f002bb8bfe41800f00afb1e4a
            1368104633b9636014602846bde8384000f005bba3420bd9216862189342
            01bf1a685b685218226063600460ede713465a680ab1a242fad919685818
            a0420bd120680144581882421960ded110685268014419605a60d8e702d9
            0c232b60d4e7206821188a4201bf116852680918216062605c60c9e738bd
            00bf7ca20020f8b5cd1c25f0030508350c2d38bf0c25002d064601dba942
            03d90c2333600020f8bd00f0b7fa21490a6814469cb9204f3b6823b92146
            304600f0c8f938602946304600f0c3f9431c23d10c233046336000f0a6fa
            e3e723685b1b17d40b2b03d923601c44256004e06368a2420cbf0b605360
            304600f094fa04f10b00231d20f00700c21accd01b1aa350c9e722466468
            cce7c41c24f00304a042e3d0211a304600f094f90130ddd1cfe700bf7ca2
            002080a200202de9f04791461f468a680b6906469342b8bf1346c9f80030
            91f843200c46ddf8208012b10133c9f800302368990642bfd9f800300233
            c9f80030256815f0060507d104f1190ae368d9f800209b1aab4229dc94f8
            43302268003318bf012392062ed404f1430239463046c047013021d02368
            e56803f00603042b18bf0025d9f800204ff0000908bfad1aa368226908bf
            25eae5759342c4bf9b1aed181a344d451ad1002008e00123524639463046
            c047013003d14ff0ff30bde8f0870135c2e73020e11881f843005a1c94f8
            45102244023382f84310c4e70123224639463046c0470130e6d009f10109
            d8e72de9f04306460c4601f14300097e85b06e29984617460c9b00f0bb80
            24d8632939d00ad8002900f0c480582900f0928004f1420584f8421035e0
            642901d06929f6d125681a6815f0800f02f104012cd012681960002a03da
            2d23524284f84330dff8c0c10a233fe0732900f0a68008d86f2921d07029
            dbd1226842f02002226003e0752918d07829d2d17822dff898c184f84520
            62e01a6804f14205111d1960136884f84230012394e0126815f0400f1960
            18bf12b2cde7d4f800c01a681cf0800f02f104051d6001d0126803e01cf0
            400ffad012886f290cbf08230a23dff844c1002184f843106568002da8bf
            2168a560a4bf21f0040121600ab9002d46d00546b2fbf3f103fb112e1cf8
            0ee0934205f801ed39d9082b0bd12368da0708d5236962689a42debf3023
            05f8013c05f1ff35401b2061cdf800803b4603aa21463046fff7e7fe0130
            49d14ff0ff3005b0bde8f083dff8ccc084f845101d68216855f8042b1d60
            0d060bd5cd0744bf41f0200121601ab9236823f0200323601023afe74b06
            48bf92b2efe70a46b9e70546c1e71a68d4f800c0151d61691cf0800f1d60
            136801d0196003e01cf0400ffad01980002305462361bde71a68111d1960
            156800216268284600f0ecf808b1401b606063682361002384f84330abe7
            23692a4639463046c0470130aed023689b0713d4e068039b9842b8bf1846
            a7e701234a4639463046c04701309ed00135e368039a9b1aab42f2dcebe7
            002504f11909f5e700bfdc870000ed87000038b50023054c054608462360
            fdf712f8431c02d1236803b12b6038bdcca400200eb46ff0004100b59cb0
            1dab02900690079104910848094953f8042b0591006802a9019300f04ef9
            0022029b1a701cb05df804eb03b07047a40000200802ffff034613f8012b
            002afbd1181a013870472de9f04786460846384f054615f8014be65d16f0
            080634d12d2c34d14ff001082c78851c002b5cd0102b09d1302c07d12878
            00f0df0058284ed110236c780235b8f1000f14bf4ff0004c6ff0004c0027
            bcfbf3f9384603fb19caa4f13006092e18d83446a34224dd7e1c07d08145
            1dd301d1a2451adb012700fb034015f8014bebe72846c1e72b2c08bf2c78
            b04608bf851cc7e7a4f14106192e01d8373ce1e7a4f16106192e04d8573c
            dbe74ff0ff37e4e77b1c06d122236046cef8003042b9bde8f087b8f1000f
            00d04042002af7d007b1691e1160f3e73024002bb0d10823aee7302ca4d0
            0a23aae700bfff87000013460a46014602480068fff781bf00bfa4000020
            7047704710b5c9b202449042034601d1002303e01c7801308c42f6d11846
            10bd884210b501eb020302d983421c4607d8421e994208d011f8014b02f8
            014ff8e783189a1a9a4200d110bd14f8011d03f8011df7e70148fff7d3bf
            00bfc4a400200148fff7cebf00bfc4a40020f8b5074614460e4621b91146
            bde8f840fff720bd22b9fff7d1fc25462846f8bd00f068f9a0420fd22146
            3846fff712fd05460028f2d031462246fff7a9fc31463846fff7bbfce9e7
            3546e7e72de9f0478e6882469e420c469146984638d8b1f80cc01cf4906f
            31d062692568096902eb42026f1a02ebd272013355103b449d4238bf1d46
            1cf4806f30d02946fff7e2fc064650b90c234ff0ff30caf80030a38943f0
            4003a381bde8f0873a462169fff76ffca38923f4906343f08003a3812661
            3e44266046466561ed1ba560464500d94646324649462068fff76cffa368
            00209b1ba36023681e442660dce72a46fff787ff06460028e2d121695046
            fff75efcc8e700002de9f04f1e468b899db01b0607460d4614460ed50b69
            63b94021fff799fc2860286120b90c233b604ff0ff30c9e040236b610023
            099320238df8293030234ff0010adff898918df82a30039623461e4613f8
            012b0ab1252af9d1b6eb040b0bd05b46224629463846fff76eff013000f0
            a380099b5b4409933378002b00f09c8000234ff0ff32cde9052301360493
            07938df853301a933446052214f8011b4f48fff7f8fe049bc0b9d90644bf
            20228df853201a0744bf2b228df8532032782a2a13d0344600200a26079a
            214611f8013b303b092b4bd970b914e0a0eb09000afa00f0184304902646
            d5e7039a111d12680391002a01db079204e0524243f00203079204932378
            2e2b0cd163782a2b33d1039b02341a1d1b680392002bb8bf4ff0ff330593
            2e4e032221783046fff7b2fe38b14023801b03fa00f0049b013403430493
            14f8011b062226488df82810fff7a1fe002838d0244b13bb039b073323f0
            070308330393099b434409936ee706fb023201200c46a8e700230a261946
            01340593204610f8012b303a092a03d9002bc8d00591c6e706fb01210123
            0446f0e703ab00932a46114b04a93846aff30080b0f1ff3f8046d6d1ab89
            5b063ff534af09981db0bde8f08f03ab00932a46074b04a93846fff78cfc
            eae700bf60890000668900006a890000000000008183000051f8043c181f
            002bbcbf0b58c01870474d42534154204653572056302e372e3000000000
            66726565206d656d3a2025640a000000446f6e652075706c6f6164696e67
            2070726f6772616d210a00000000000102030405060764657369676e2076
            65722e2025640a0061757468656e74696361746564210a004661696c6564
            3a2025640a005374617274696e67204941502e2e2e0a0000000000010000
            02000000100003000a0000004c4544205370696e6e657200554152543020
            52656365697665720000546573742057440043414e0048656c6c6f20576f
            726c64000030014004300140083001400c30014010300140143001401830
            01401c3001402030014024300140283001402c3001403030014034300140
            383001403c3001404030014044300140483001404c300140503001405430
            0140583001405c3001406030014064300140683001406c30014070300140
            74300140783001407c3001404865617020616e6420737461636b20636f6c
            6c6973696f6e0a0000004f7574206f662068656170206d656d6f72790a00
            000100010202030349444c45000000000925630925750925750925750d0a
            0000546d7220537663003031323334353637383941424344454600303132
            333435363738396162636465660000202020202020202020282828282820
            202020202020202020202020202020202088101010101010101010101010
            101010040404040404040404041010101010101041414141414101010101
            010101010101010101010101010101011010101010104242424242420202
            020202020202020202020202020202020202101010102000000000000000
            000000000000000000000000000000000000000000000000000000000000
            000000000000000000000000000000000000000000000000000000000000
            000000000000000000000000000000000000000000000000000000000000
            000000000000000000000000000000000000000000000000000000000000
            000000000000000000000000000000000000000000000000000000000000
            000000000000000000000000000000000000000000000000000000000000
            000000000000000000000000000000000000000000000000000000000000
            0000000000000000232d302b2000686c4c0065666745464700000000f8b5
            00bff8bc08bc9e467047f8b500bff8bc08bc9e46704719050000f1040000
            0000000000000000000000000000005000000150080008005f1400002b14
            000002000000000000080c00002000000008000100000010000000000000
            d51400009514000030000020000020000001000000100000010000001c00
            00203800002001000c010100000000001000000100000001050701050700
            0203010507000000040607000507000006070000f11f00000020a1070090
            d0030048e8010048e8010020a1070020a1070020a107aaaaaaaaa8000020
            000000002089000040890000008900000000000000000000000000000000
            000000000000000000000000000000000000000000000000000000000000
            000000000000000000000000000000000000000000000000000000000000
            0000000000000000000000000000
            <crc>
                658a
            </crc>
        </region>
    </nvm>
</Actel_Data_File>
